2072.000000 0.000000 0.000000
2135.000000 0.000000 0.309017
2199.898063 0.101937 0.587785
2250.321045 0.678955 0.809017
2252.777674 2.222326 0.951057
2238.938478 5.061522 1.000000
2197.843219 9.156781 0.951057
2150.015238 13.984762 0.809017
2080.313183 18.686817 0.587785
1999.744375 22.255625 0.309017
1929.112051 23.887949 0.000000
1863.749941 23.250059 -0.309017
1804.502084 20.497916 -0.587785
1766.782902 16.217098 -0.809017
1746.720797 11.279203 -0.951057
1754.430565 6.569435 -1.000000
1781.164671 2.835329 -0.951057
1817.503231 0.496769 -0.809017
1888.403096 -0.403096 -0.587785
1974.957193 0.042807 -0.309017
2048.449085 1.550915 -0.000000
2113.242025 3.757975 0.309017
2167.476667 6.523333 0.587785
2201.083629 9.916371 0.809017
2225.954031 14.045969 0.951057
2212.033637 18.966363 1.000000
2184.764380 24.235620 0.951057
2148.826994 29.173006 0.809017
2082.128243 32.871757 0.587785
2001.752013 34.247987 0.309017
1938.377642 32.622358 0.000000
1880.937088 28.062912 -0.309017
1827.872992 21.127008 -0.587785
1773.181458 12.818542 -0.809017
1743.678661 4.321339 -0.951057
1762.008202 -3.008202 -1.000000
1785.866485 -7.866485 -0.951057
1824.737260 -9.737260 -0.809017
1898.520605 -8.520605 -0.587785
1981.330041 -4.330041 -0.309017
2039.785907 2.214093 -0.000000
2123.904212 10.095788 0.309017
2194.069832 18.930168 0.587785
2230.863525 28.136475 0.809017
2231.946936 37.053064 0.951057
2228.055737 44.944263 1.000000
2208.760462 51.239538 0.951057
2171.920032 55.079968 0.809017
2113.483810 55.516190 0.587785
2047.270843 51.729157 0.309017
1974.464190 43.535810 0.000000
1924.576701 31.423299 -0.309017
1906.088883 16.911117 -0.587785
1893.889820 2.110180 -0.809017
1910.019409 -11.019409 -0.951057
1963.422330 -20.422330 -1.000000
2041.407366 -24.407366 -0.951057
2124.176028 -22.176028 -0.809017
2245.045954 -14.045954 -0.587785
2369.577673 -0.577673 -0.309017
2445.332773 16.667227 -0.000000
2535.843420 35.156580 0.309017
2617.521457 53.478543 0.587785
2701.770338 70.229662 0.809017
2780.466231 84.533769 0.951057
2830.380215 95.619785 1.000000
2819.601849 102.398151 0.951057
2802.790909 103.209091 0.809017
2739.568755 97.431245 0.587785
2662.799474 84.200526 0.309017
2586.020517 63.979483 0.000000
2500.567232 38.432768 -0.309017
2447.037101 9.962899 -0.587785
2394.737671 -17.737671 -0.809017
2354.431806 -41.431806 -0.951057
2338.156978 -58.156978 -1.000000
2346.629715 -65.629715 -0.951057
2353.725659 -62.725659 -0.809017
2388.087759 -50.087759 -0.587785
2399.896317 -28.896317 -0.309017
2362.085623 -2.085623 -0.000000
2349.477802 26.522198 0.309017
2333.293963 54.706037 0.587785
2320.974505 80.025495 0.809017
2297.391499 100.608501 0.951057
2230.321722 114.678278 1.000000
2195.863232 120.136768 0.951057
2155.035110 116.964890 0.809017
2085.065687 104.934313 0.587785
2028.960539 84.039461 0.309017
1975.858630 56.141370 0.000000
1935.212674 23.787326 -0.309017
1897.541451 -9.541451 -0.587785
1886.234344 -40.234344 -0.809017
1908.292756 -64.292756 -0.951057
1915.195747 -78.195747 -1.000000
1938.675986 -80.675986 -0.951057
1966.113760 -71.113760 -0.809017
2000.583009 -50.583009 -0.587785
2036.282888 -21.282888 -0.309017
2056.377377 13.622623 -0.000000
2084.811411 50.188589 0.309017
2107.931246 85.068754 0.587785
2116.249259 114.750741 0.809017
2134.012687 135.987313 0.951057
2114.053999 146.946001 1.000000
2084.367227 145.632773 0.951057
2063.091445 131.908555 0.809017
2017.709281 107.290719 0.587785
1971.439663 73.560337 0.309017
1935.058540 33.941460 0.000000
1910.497144 -7.497144 -0.309017
1883.448197 -46.448197 -0.587785
1849.191141 -79.191141 -0.809017
1854.734168 -102.734168 -0.951057
1887.819637 -113.819637 -1.000000
1903.667081 -110.667081 -0.951057
1913.975563 -93.975563 -0.809017
1949.498047 -65.498047 -0.587785
1997.379148 -27.379148 -0.309017
2025.997779 17.002221 -0.000000
2053.121273 62.878727 0.309017
2051.242702 105.757298 0.587785
2086.251185 140.748815 0.809017
2110.652056 165.347944 0.951057
2076.075604 176.924396 1.000000
2055.099589 172.900411 0.951057
2050.032412 153.967588 0.809017
2033.648742 122.351258 0.587785
1984.142864 80.857136 0.309017
1933.301146 32.698854 -0.000000
1907.503491 -17.503491 -0.309017
1898.271852 -64.271852 -0.587785
1900.645630 -102.645630 -0.809017
1879.589693 -128.589693 -0.951057
1894.147295 -140.147295 -1.000000
1909.322521 -135.322521 -0.951057
1918.554401 -114.554401 -0.809017
1971.005878 -80.005878 -0.587785
2003.967018 -33.967018 -0.309017
2041.367503 18.632497 -0.000000
2061.204827 72.795173 0.309017
2055.174125 122.825875 0.587785
2067.795180 163.204820 0.809017
2075.561648 190.438352 0.951057
2060.245261 201.754739 1.000000
2045.521312 195.478688 0.951057
2036.779388 172.220612 0.809017
1992.611292 134.388708 0.587785
1963.210125 84.789875 0.309017
1951.405677 28.594323 0.000000
1935.293194 -28.293194 -0.309017
1925.426273 -80.426273 -0.587785
1906.565341 -122.565341 -0.809017
1902.822456 -150.822456 -0.951057
1932.076741 -162.076741 -1.000000
1946.406200 -154.406200 -0.951057
1952.899004 -128.899004 -0.809017
1985.230357 -88.230357 -0.587785
2022.727283 -35.727283 -0.309017
2035.360447 23.639553 -0.000000
2058.516804 83.483196 0.309017
2057.775728 138.224272 0.587785
2058.064759 181.935241 0.809017
2061.637785 210.362215 0.951057
2045.194984 220.805016 1.000000
2035.254593 211.745407 0.951057
2042.787353 184.212647 0.809017
2025.673500 141.326500 0.587785
1996.321988 86.678012 0.309017
1972.710323 25.289677 -0.000000
1958.721806 -36.721806 -0.309017
1955.074633 -93.074633 -0.587785
1952.011179 -138.011179 -0.809017
1967.122611 -167.122611 -0.951057
1988.108676 -177.108676 -1.000000
1984.826513 -166.826513 -0.951057
1985.863638 -137.863638 -0.809017
2014.951174 -92.951174 -0.587785
2050.782935 -35.782935 -0.309017
2046.750751 28.249249 -0.000000
2059.075294 91.924706 0.309017
2067.585576 149.414424 0.587785
2071.989367 195.010633 0.809017
2064.842193 224.157807 0.951057
2037.280566 233.719434 1.000000
2051.759552 222.240448 0.951057
2057.138217 191.861783 0.809017
2044.652677 145.347323 0.587785
2017.189796 86.810204 0.309017
2000.409265 21.590735 0.000000
1979.693490 -43.693490 -0.309017
1978.770912 -102.770912 -0.587785
1969.389138 -149.389138 -0.809017
1984.197460 -179.197460 -0.951057
1990.684759 -188.684759 -1.000000
2011.112258 -177.112258 -0.951057
2016.256312 -145.256312 -0.809017
2032.592294 -96.592294 -0.587785
2048.597684 -35.597684 -0.309017
2070.231336 31.768664 -0.000000
2082.927247 99.072753 0.309017
2088.470584 159.529416 0.587785
2093.942545 207.057455 0.809017
2106.990508 237.009492 0.951057
2096.350291 246.649709 1.000000
2085.541785 234.458215 0.951057
2091.388828 201.611172 0.809017
2074.272960 151.727040 0.587785
2070.878091 89.121909 0.309017
2040.753914 20.246086 -0.000000
2030.830770 -48.830770 -0.309017
2043.878768 -110.878768 -0.587785
2038.262082 -159.262082 -0.809017
2035.695266 -189.695266 -0.951057
2062.129936 -199.129936 -1.000000
2070.920663 -185.920663 -0.951057
2072.769216 -151.769216 -0.809017
2081.181376 -100.181376 -0.587785
2099.040566 -36.040566 -0.309017
2100.378869 34.621131 -0.000000
2114.504312 104.495688 0.309017
2111.935389 167.064611 0.587785
2104.196857 215.803143 0.809017
2119.191967 245.808033 0.951057
2116.298933 254.701067 1.000000
2103.817125 241.182875 0.951057
2110.666546 206.333454 0.809017
2125.967884 154.032116 0.587785
2122.381841 89.618159 0.309017
2091.056592 18.943408 0.000000
2081.771868 -51.771868 -0.309017
2102.092881 -115.092881 -0.587785
2101.092546 -164.092546 -0.809017
2097.482605 -194.482605 -0.951057
2109.354730 -203.354730 -1.000000
2105.457821 -189.457821 -0.951057
2100.531904 -154.531904 -0.809017
2133.026265 -102.026265 -0.587785
2158.151041 -36.151041 -0.309017
2159.499039 36.500961 -0.000000
2152.745619 108.254381 0.309017
2140.115393 171.884607 0.587785
2142.992113 221.007887 0.809017
2147.812090 251.187910 0.951057
2149.477453 259.522547 1.000000
2169.877022 245.122978 0.951057
2171.130873 209.869127 0.809017
2160.241797 156.758203 0.587785
2157.312965 90.687035 0.309017
2154.691189 18.308811 -0.000000
2155.287491 -53.287491 -0.309017
2173.016283 -117.016283 -0.587785
2142.210303 -166.210303 -0.809017
2158.245776 -197.245776 -0.951057
2173.951390 -205.951390 -1.000000
2190.463605 -191.463605 -0.951057
2182.161204 -155.161204 -0.809017
2201.197881 -101.197881 -0.587785
2223.182623 -34.182623 -0.309017
2232.578355 39.421645 0.000000
2234.877802 112.122198 0.309017
2208.363311 176.636689 0.587785
2209.067544 225.932456 0.809017
2225.167889 255.832111 0.951057
2213.205369 263.794631 1.000000
2203.641282 248.358718 0.951057
2218.919328 211.080672 0.809017
2213.781124 156.218876 0.587785
2201.348126 88.651874 0.309017
2189.195061 14.804939 0.000000
2189.101493 -58.101493 -0.309017
2178.644214 -122.644214 -0.587785
2192.764541 -172.764541 -0.809017
2196.954701 -202.954701 -0.951057
2205.490449 -210.490449 -1.000000
2202.520366 -194.520366 -0.951057
2213.884917 -156.884917 -0.809017
2243.913390 -100.913390 -0.587785
2249.604164 -31.604164 -0.309017
2253.313409 43.686591 -0.000000
2241.453685 117.546315 0.309017
2239.639581 182.360419 0.587785
2239.978924 232.021076 0.809017
2234.281229 261.718771 0.951057
2228.604024 268.395976 1.000000
2226.607379 251.392621 0.951057
2245.541821 212.458179 0.809017
2239.075341 155.924659 0.587785
2255.285898 86.714102 0.309017
2249.839668 12.160332 -0.000000
2252.960394 -60.960394 -0.309017
2259.282998 -125.282998 -0.587785
2251.427271 -174.427271 -0.809017
2239.929352 -203.929352 -0.951057
2256.002037 -211.002037 -1.000000
2255.277807 -194.277807 -0.951057
2240.794002 -155.794002 -0.809017
2247.662561 -99.662561 -0.587785
2263.861934 -30.861934 -0.309017
2258.885130 44.114870 -0.000000
2255.580985 117.419015 0.309017
2241.089293 181.910707 0.587785
2240.006680 230.993320 0.809017
2245.820200 260.179800 0.951057
2248.215751 266.784249 1.000000
2239.918157 250.081843 0.951057
2235.556869 211.443131 0.809017
2228.261404 154.738596 0.587785
2230.559820 85.440180 0.309017
2227.437784 10.562216 0.000000
2229.698417 -62.698417 -0.309017
2231.039713 -127.039713 -0.587785
2230.183714 -176.183714 -0.809017
2228.373154 -205.373154 -0.951057
2228.775679 -211.775679 -1.000000
2230.711453 -194.711453 -0.951057
2218.812018 -155.812018 -0.809017
2227.228633 -99.228633 -0.587785
2237.006733 -30.006733 -0.309017
2242.877904 45.122096 -0.000000
2230.281989 118.718011 0.309017
2218.877561 183.122439 0.587785
2221.954600 232.045400 0.809017
2216.953943 261.046057 0.951057
2209.912555 267.087445 1.000000
2201.478945 249.521055 0.951057
2211.977014 210.022986 0.809017
2201.077444 152.922556 0.587785
2192.712942 83.287058 0.309017
2196.017059 7.982941 0.000000
2197.337025 -65.337025 -0.309017
2205.541330 -129.541330 -0.587785
2184.171486 -178.171486 -0.809017
2174.196550 -207.196550 -0.951057
2178.516621 -213.516621 -1.000000
2188.167877 -196.167877 -0.951057
2173.709969 -156.709969 -0.809017
2177.596230 -99.596230 -0.587785
2174.976439 -29.976439 -0.309017
2178.823361 45.176639 0.000000
2170.335041 118.664959 0.309017
2167.008702 182.991298 0.587785
2176.022391 231.977609 0.809017
2186.866798 261.133202 0.951057
2180.339079 267.660921 1.000000
2174.499248 250.500752 0.951057
2190.658336 211.341664 0.809017
2182.440352 154.559648 0.587785
2166.876732 85.123268 0.309017
2154.364255 9.635745 0.000000
2154.456442 -64.456442 -0.309017
2156.600826 -129.600826 -0.587785
2147.369203 -179.369203 -0.809017
2141.171675 -209.171675 -0.951057
2176.026411 -216.026411 -1.000000
2183.243698 -198.243698 -0.951057
2138.212520 -158.212520 -0.809017
2155.148790 -101.148790 -0.587785
2149.144215 -31.144215 -0.309017
2155.604130 44.395870 -0.000000
2135.618659 118.381341 0.309017
2116.083245 182.916755 0.587785
2144.328268 231.671732 0.809017
2146.955597 261.044403 0.951057
2131.446314 267.553686 1.000000
2142.887796 250.112204 0.951057
2149.917956 211.082044 0.809017
2137.812533 154.187467 0.587785
2139.472077 84.527923 0.309017
2117.748515 9.251485 0.000000
2115.855811 -64.855811 -0.309017
2135.070637 -130.070637 -0.587785
2127.483938 -179.483938 -0.809017
2139.905323 -208.905323 -0.951057
2136.963903 -214.963903 -1.000000
2139.435493 -197.435493 -0.951057
2126.904171 -157.904171 -0.809017
2114.611585 -100.611585 -0.587785
2109.175299 -31.175299 -0.309017
2128.235853 43.764147 -0.000000
2134.523073 117.476927 0.309017
2128.548491 182.451509 0.587785
2136.971123 232.028877 0.809017
2156.291328 261.708672 0.951057
2168.131626 268.868374 1.000000
2144.356216 252.643784 0.951057
2142.252828 213.747172 0.809017
2140.501279 156.498721 0.587785
2158.491472 86.508528 0.309017
2138.880878 11.119122 0.000000
2123.207863 -63.207863 -0.309017
2117.122341 -129.122341 -0.587785
2115.951632 -179.951632 -0.809017
2137.604789 -210.604789 -0.951057
2155.512101 -217.512101 -1.000000
2119.064584 -200.064584 -0.951057
2089.307084 -161.307084 -0.809017
2101.910799 -104.910799 -0.587785
2112.373573 -35.373573 -0.309017
2141.540294 40.459706 -0.000000
2149.353653 115.646347 0.309017
2137.671586 182.328414 0.587785
2151.499225 233.500775 0.809017
2142.222229 264.777771 0.951057
2125.462904 272.537096 1.000000
2121.179196 255.820804 0.951057
2147.443415 216.556585 0.809017
2145.653648 159.346352 0.587785
2127.878973 89.121027 0.309017
2121.647057 12.352943 0.000000
2129.176486 -63.176486 -0.309017
2135.737505 -129.737505 -0.587785
2136.829654 -180.829654 -0.809017
2138.580373 -211.580373 -0.951057
2121.961765 -218.961765 -1.000000
2117.708380 -202.708380 -0.951057
2107.122416 -164.122416 -0.809017
2120.144455 -107.144455 -0.587785
2119.774649 -36.774649 -0.309017
2143.220148 39.779852 0.000000
2136.379710 115.620290 0.309017
2132.405586 182.594414 0.587785
2125.790382 234.209618 0.809017
2115.657443 265.342557 0.951057
2133.150316 272.849684 1.000000
2123.325605 256.674395 0.951057
2132.261494 217.738506 0.809017
2116.689674 160.310326 0.587785
2110.590434 89.409566 0.309017
2117.805751 12.194249 0.000000
2110.451853 -63.451853 -0.309017
2137.479373 -130.479373 -0.587785
2130.476653 -181.476653 -0.809017
2106.269410 -212.269410 -0.951057
2108.282115 -220.282115 -1.000000
2106.104550 -204.104550 -0.951057
2108.422583 -165.422583 -0.809017
2128.912947 -107.912947 -0.587785
2123.747942 -36.747942 -0.309017
2132.510007 40.489993 -0.000000
2134.417873 116.582127 0.309017
2122.080601 183.919399 0.587785
2131.443427 235.556573 0.809017
2134.033551 266.966449 0.951057
2121.083451 274.916549 1.000000
2117.756674 258.243326 0.951057
2123.196393 218.803607 0.809017
2122.326881 160.673119 0.587785
2149.608995 89.391005 0.309017
2153.362419 12.637581 0.000000
2137.628828 -62.628828 -0.309017
2138.523204 -129.523204 -0.587785
2121.101012 -181.101012 -0.809017
2121.770277 -212.770277 -0.951057
2120.000021 -221.000021 -1.000000
2125.044829 -205.044829 -0.951057
2125.298295 -166.298295 -0.809017
2157.666812 -108.666812 -0.587785
2151.988563 -36.988563 -0.309017
2139.191480 40.808520 -0.000000
2136.075800 116.924200 0.309017
2141.865880 184.134120 0.587785
2132.921864 236.078136 0.809017
2136.689662 267.310338 0.951057
2144.919648 275.080352 1.000000
2144.256239 258.743761 0.951057
2158.312562 219.687438 0.809017
2141.898330 162.101670 0.587785
2142.121211 90.878789 0.309017
2133.613570 13.386430 -0.000000
2132.007905 -63.007905 -0.309017
2138.664067 -130.664067 -0.587785
2136.754818 -182.754818 -0.809017
2145.387144 -214.387144 -0.951057
2140.203449 -222.203449 -1.000000
2129.773456 -205.773456 -0.951057
2106.842948 -166.842948 -0.809017
2124.547990 -109.547990 -0.587785
2133.509179 -38.509179 -0.309017
2155.877222 39.122778 -0.000000
2147.905140 116.094860 0.309017
2140.858630 184.141370 0.587785
2145.385174 236.614826 0.809017
2152.340536 268.659464 0.951057
2151.795208 277.204792 1.000000
2134.764673 261.235327 0.951057
2144.098527 221.901473 0.809017
2137.308226 163.691774 0.587785
2155.087483 91.912517 0.309017
2158.804114 14.195886 0.000000
2160.180483 -62.180483 -0.309017
2156.794300 -129.794300 -0.587785
2135.144432 -182.144432 -0.809017
2131.567218 -214.567218 -0.951057
2141.463566 -223.463566 -1.000000
2139.630176 -207.630176 -0.951057
2137.898065 -168.898065 -0.809017
2174.058314 -111.058314 -0.587785
2165.827491 -38.827491 -0.309017
2166.341583 39.658417 0.000000
2147.074786 116.925214 0.309017
2144.084407 184.915593 0.587785
2151.642480 237.357520 0.809017
2158.622336 269.377664 0.951057
2159.163535 277.836465 1.000000
2158.246512 261.753488 0.951057
2176.332744 222.667256 0.809017
2168.122241 164.877759 0.587785
2177.593451 93.406549 0.309017
2175.318278 15.681722 0.000000
2164.970546 -60.970546 -0.309017
2156.251594 -129.251594 -0.587785
2167.449539 -182.449539 -0.809017
2170.869742 -214.869742 -0.951057
2164.519429 -223.519429 -1.000000
2164.791986 -207.791986 -0.951057
2147.069124 -169.069124 -0.809017
2142.590859 -111.590859 -0.587785
2143.674133 -40.674133 -0.309017
2155.127211 36.872789 0.000000
2147.280356 113.719644 0.309017
2153.124357 181.875643 0.587785
2150.998129 235.001871 0.809017
2158.294142 267.705858 0.951057
2175.980736 277.019264 1.000000
2190.700880 262.299120 0.951057
2202.066183 224.933817 0.809017
2184.484930 168.515070 0.587785
2173.144218 97.855782 0.309017
2159.992921 20.007079 0.000000
2171.469808 -57.469808 -0.309017
2168.391288 -126.391288 -0.587785
2175.360689 -180.360689 -0.809017
2169.847679 -213.847679 -0.951057
2180.877849 -223.877849 -1.000000
2174.062544 -209.062544 -0.951057
2163.284629 -171.284629 -0.809017
2169.349475 -114.349475 -0.587785
2170.422408 -43.422408 -0.309017
2173.563643 34.436357 -0.000000
2170.341516 111.658484 0.309017
2166.470309 180.529691 0.587785
2185.711783 234.288217 0.809017
2192.755119 268.244881 0.951057
2172.205641 278.794359 1.000000
2164.777207 264.222793 0.951057
2188.740569 226.259431 0.809017
2197.603903 169.396097 0.587785
2213.149209 98.850791 0.309017
2194.293127 21.706873 -0.000000
2207.325287 -55.325287 -0.309017
2208.931108 -123.931108 -0.587785
2198.664690 -177.664690 -0.809017
2189.561054 -211.561054 -0.951057
2193.285682 -222.285682 -1.000000
2208.479204 -208.479204 -0.951057
2198.201814 -171.201814 -0.809017
2187.720667 -114.720667 -0.587785
2191.582199 -44.582199 -0.309017
2212.306309 32.693691 -0.000000
2200.031011 109.968989 0.309017
2190.120177 178.879823 0.587785
2201.275188 232.724812 0.809017
2203.252247 266.747753 0.951057
2202.597556 277.402444 1.000000
2203.417445 263.582555 0.951057
2220.323064 226.676936 0.809017
2197.298687 170.701313 0.587785
2197.842595 100.157405 0.309017
2187.488424 22.511576 0.000000
2202.907445 -54.907445 -0.309017
2222.889684 -123.889684 -0.587785
2224.549733 -177.549733 -0.809017
2200.068577 -211.068577 -0.951057
2194.816656 -221.816656 -1.000000
2187.291098 -208.291098 -0.951057
2176.879146 -171.879146 -0.809017
2192.226423 -116.226423 -0.587785
2190.149365 -46.149365 -0.309017
2212.924432 31.075568 0.000000
2215.492176 108.507824 0.309017
2206.909524 178.090476 0.587785
2203.263326 232.736674 0.809017
2200.789825 267.210175 0.951057
2194.838671 278.161329 1.000000
2202.571806 264.428194 0.951057
2220.310110 227.689890 0.809017
2222.197792 171.802208 0.587785
2228.138735 101.861265 0.309017
2226.182993 24.817007 0.000000
2229.979084 -51.979084 -0.309017
2232.868270 -120.868270 -0.587785
2229.125223 -175.125223 -0.809017
2226.601167 -209.601167 -0.951057
2215.895461 -220.895461 -1.000000
2226.110170 -208.110170 -0.951057
2222.986897 -171.986897 -0.809017
2213.382590 -116.382590 -0.587785
2206.906035 -46.906035 -0.309017
2224.291637 29.708363 -0.000000
2216.450319 106.549681 0.309017
2217.513244 175.486756 0.587785
2226.015443 229.984557 0.809017
2223.104257 264.895743 0.951057
2218.471968 276.528032 1.000000
2239.303815 263.696185 0.951057
2259.712792 228.287208 0.809017
2241.217904 173.782096 0.587785
2250.431435 104.568565 0.309017
2247.908202 28.091798 0.000000
2260.444272 -48.444272 -0.309017
2256.174366 -117.174366 -0.587785
2234.775514 -171.775514 -0.809017
2230.336423 -207.336423 -0.951057
2253.978333 -219.978333 -1.000000
2271.767173 -207.767173 -0.951057
2252.015655 -172.015655 -0.809017
2237.140128 -117.140128 -0.587785
2249.414461 -48.414461 -0.309017
2260.905455 28.094545 -0.000000
2254.106909 104.893091 0.309017
2256.979579 174.020421 0.587785
2267.056667 228.943333 0.809017
2266.530785 264.469215 0.951057
2267.132199 276.867801 1.000000
2270.047029 264.952971 0.951057
2284.050397 229.949603 0.809017
2277.435150 175.564850 0.587785
2274.376061 106.623939 0.309017
2266.043902 29.956098 -0.000000
2279.069462 -47.069462 -0.309017
2289.389194 -116.389194 -0.587785
2279.269307 -171.269307 -0.809017
2265.836118 -206.836118 -0.951057
2275.703313 -219.703313 -1.000000
2284.045289 -208.045289 -0.951057
2262.029273 -173.029273 -0.809017
2264.831618 -118.831618 -0.587785
2284.164047 -50.164047 -0.309017
2319.331541 26.668459 -0.000000
2300.435468 104.564532 0.309017
2281.409398 174.590602 0.587785
2287.134341 229.865659 0.809017
2293.425510 265.574490 0.951057
2307.757173 278.242827 1.000000
2308.160685 266.839315 0.951057
2314.850458 232.149542 0.809017
2299.273167 177.726833 0.587785
2302.650027 108.349973 0.309017
2277.735155 31.264845 0.000000
2293.686083 -46.686083 -0.309017
2288.881271 -116.881271 -0.587785
2290.948902 -172.948902 -0.809017
2281.234753 -209.234753 -0.951057
2282.478926 -222.478926 -1.000000
2281.122919 -211.122919 -0.951057
2239.341818 -176.341818 -0.809017
2251.552525 -122.552525 -0.587785
2267.721641 -53.721641 -0.309017
2267.472909 23.527091 -0.000000
2253.758637 101.241363 0.309017
2252.522980 171.477020 0.587785
2247.345911 227.654089 0.809017
2261.826478 264.173522 0.951057
2264.054353 277.945647 1.000000
2256.666246 267.333754 0.951057
2280.861064 233.138936 0.809017
2274.511048 179.488952 0.587785
2277.098579 110.901421 0.309017
2272.694163 34.305837 0.000000
2287.971723 -42.971723 -0.309017
2272.880134 -112.880134 -0.587785
2265.316808 -169.316808 -0.809017
2244.587589 -206.587589 -0.951057
2242.382555 -221.382555 -1.000000
2257.815732 -211.815732 -0.951057
2250.385330 -178.385330 -0.809017
2245.916455 -124.916455 -0.587785
2233.578066 -56.578066 -0.309017
2239.261807 19.738193 0.000000
2231.002589 96.997411 0.309017
2235.704702 167.295298 0.587785
2237.935466 224.064534 0.809017
2237.307879 261.692121 0.951057
2233.573921 276.426079 1.000000
2230.254281 266.745719 0.951057
2237.395590 233.604410 0.809017
2249.496283 180.503717 0.587785
2261.225771 112.774229 0.309017
2246.948695 37.051305 0.000000
2241.888580 -39.888580 -0.309017
2231.301057 -110.301057 -0.587785
2237.438041 -167.438041 -0.809017
2248.301407 -205.301407 -0.951057
2252.059156 -220.059156 -1.000000
2244.431046 -210.431046 -0.951057
2238.639591 -177.639591 -0.809017
2237.858064 -124.858064 -0.587785
2230.134928 -57.134928 -0.309017
2253.273892 18.726108 -0.000000
2244.938658 96.061342 0.309017
2246.457883 166.542117 0.587785
2251.494551 223.505449 0.809017
2259.534837 261.465163 0.951057
2247.213247 276.786753 1.000000
2238.528776 267.471224 0.951057
2246.493702 234.506298 0.809017
2245.475581 181.524419 0.587785
2251.503006 113.496994 0.309017
2249.742088 37.257912 -0.000000
2258.917347 -39.917347 -0.309017
2246.203080 -110.203080 -0.587785
2227.255243 -167.255243 -0.809017
2218.660569 -205.660569 -0.951057
2230.424031 -221.424031 -1.000000
2233.504155 -212.504155 -0.951057
2222.976771 -179.976771 -0.809017
2229.362304 -127.362304 -0.587785
2217.401083 -59.401083 -0.309017
2253.196482 16.803518 -0.000000
2256.028659 94.971341 0.309017
2279.329505 166.670495 0.587785
2275.602252 225.397748 0.809017
2286.242724 264.757276 0.951057
2309.749074 281.250926 1.000000
2310.401148 273.598852 0.951057
2310.992503 242.007497 0.809017
2324.431477 189.568523 0.587785
2349.263064 121.736936 0.309017
2345.546176 45.453824 0.000000
2364.497020 -32.497020 -0.309017
2365.923078 -103.923078 -0.587785
2359.247601 -162.247601 -0.809017
2384.962173 -201.962173 -0.951057
2418.377671 -218.377671 -1.000000
2457.663244 -209.663244 -0.951057
2486.484284 -176.484284 -0.809017
2520.302121 -122.302121 -0.587785
2551.260298 -52.260298 -0.309017
2607.245110 26.754890 -0.000000
2647.327567 107.672433 0.309017
2696.757499 182.242501 0.587785
2720.551613 243.448387 0.809017
2746.281581 284.718419 0.951057
2788.909690 302.090310 1.000000
2842.682486 294.317514 0.951057
2930.508337 262.491663 0.809017
2952.354786 210.645214 0.587785
2957.688762 142.311238 0.309017
2948.207341 63.792659 0.000000
2942.588435 -17.588435 -0.309017
2917.780936 -93.780936 -0.587785
2897.813179 -157.813179 -0.809017
2877.326603 -203.326603 -0.951057
2846.903441 -225.903441 -1.000000
2820.607195 -223.607195 -0.951057
2771.596691 -196.596691 -0.809017
2758.115937 -148.115937 -0.587785
2737.082292 -82.082292 -0.309017
2727.164906 -5.164906 -0.000000
2684.640820 75.359180 0.309017
2622.219593 150.780407 0.587785
2579.833442 213.166558 0.809017
2540.164659 256.835341 0.951057
2508.471777 277.528223 1.000000
2460.629501 273.370499 0.951057
2420.673357 244.326643 0.809017
2373.621716 193.378284 0.587785
2352.713675 125.286325 0.309017
2350.687901 47.312099 0.000000
2352.465259 -32.465259 -0.309017
2362.143986 -106.143986 -0.587785
2375.312186 -166.312186 -0.809017
2366.981096 -206.981096 -0.951057
2361.691131 -224.691131 -1.000000
2365.642873 -217.642873 -0.951057
2363.301687 -186.301687 -0.809017
2369.887953 -133.887953 -0.587785
2360.311971 -65.311971 -0.309017
2367.682434 12.317566 -0.000000
2356.186317 91.813683 0.309017
2355.067900 164.932100 0.587785
2350.239148 224.760852 0.809017
2347.650642 265.349358 0.951057
2339.225370 282.774630 1.000000
2336.818126 275.181874 0.951057
2333.545537 243.454463 0.809017
2339.326480 190.673520 0.587785
2340.772057 122.227943 0.309017
2339.283647 44.716353 -0.000000
2357.345457 -34.345457 -0.309017
2351.731432 -106.731432 -0.587785
2342.925724 -165.925724 -0.809017
2333.220644 -206.220644 -0.951057
2312.705105 -223.705105 -1.000000
2314.949740 -216.949740 -0.951057
2317.071912 -186.071912 -0.809017
2315.094471 -134.094471 -0.587785
2319.205227 -66.205227 -0.309017
2322.899864 11.100136 -0.000000
2303.750945 90.249055 0.309017
2298.072685 162.927315 0.587785
2306.666002 222.333998 0.809017
2311.996195 263.003805 0.951057
2322.115371 280.884629 1.000000
2319.647584 274.352416 0.951057
2326.255707 243.744293 0.809017
2325.719726 192.280274 0.587785
2333.172500 124.827500 0.309017
2317.812221 48.187779 0.000000
2315.698064 -30.698064 -0.309017
2316.795775 -103.795775 -0.587785
2324.872332 -163.872332 -0.809017
2312.871208 -204.871208 -0.951057
2303.271207 -223.271207 -1.000000
2314.225865 -217.225865 -0.951057
2313.824823 -186.824823 -0.809017
2318.314434 -135.314434 -0.587785
2322.615120 -67.615120 -0.309017
2331.352989 9.647011 -0.000000
2312.974807 89.025193 0.309017
2301.917872 162.082128 0.587785
2314.172962 221.827038 0.809017
2340.019054 262.980946 0.951057
2346.129809 281.870191 1.000000
2339.815996 276.184004 0.951057
2359.824149 246.175851 0.809017
2342.566537 195.433463 0.587785
2341.983303 128.016697 0.309017
2339.079483 50.920517 -0.000000
2356.367093 -28.367093 -0.309017
2357.583676 -101.583676 -0.587785
2339.942906 -161.942906 -0.809017
2310.006347 -204.006347 -0.951057
2308.985515 -223.985515 -1.000000
2334.238447 -219.238447 -0.951057
2336.574224 -189.574224 -0.809017
2330.438617 -138.438617 -0.587785
2322.046062 -71.046062 -0.309017
2336.057342 5.942658 0.000000
2334.458823 85.541177 0.309017
2335.415265 159.584735 0.587785
2344.112647 220.887353 0.809017
2333.357004 263.642996 0.951057
2316.809239 283.190761 1.000000
2313.540788 277.459212 0.951057
2325.678871 247.321129 0.809017
2348.892198 196.107802 0.587785
2365.875920 129.124080 0.309017
2344.200539 52.799461 0.000000
2357.340567 -26.340567 -0.309017
2362.705362 -99.705362 -0.587785
2339.291770 -160.291770 -0.809017
2337.882067 -202.882067 -0.951057
2341.785769 -222.785769 -1.000000
2356.923453 -217.923453 -0.951057
2350.485450 -188.485450 -0.809017
2338.874227 -137.874227 -0.587785
2333.181171 -71.181171 -0.309017
2346.800916 5.199084 -0.000000
2341.734239 84.265761 0.309017
2339.171234 157.828766 0.587785
2329.256368 218.743632 0.809017
2331.139344 260.860656 0.951057
2336.660057 280.339943 1.000000
2333.632026 275.367974 0.951057
2340.775525 246.224475 0.809017
2350.987202 196.012798 0.587785
2368.266542 129.733458 0.309017
2362.936476 54.063524 0.000000
2364.133996 -24.133996 -0.309017
2357.047916 -97.047916 -0.587785
2354.746537 -157.746537 -0.809017
2346.177309 -200.177309 -0.951057
2330.346325 -220.346325 -1.000000
2350.471330 -216.471330 -0.951057
2358.052106 -188.052106 -0.809017
2357.159505 -138.159505 -0.587785
2352.879923 -71.879923 -0.309017
2355.787032 4.212968 -0.000000
2339.154905 82.845095 0.309017
2336.165526 155.834474 0.587785
2337.642885 216.357115 0.809017
2344.403350 258.596650 0.951057
2345.447736 278.552264 1.000000
2345.864067 274.135933 0.951057
2347.234465 245.765535 0.809017
2345.757477 196.242523 0.587785
2364.654953 130.345047 0.309017
2368.968836 55.031164 -0.000000
2374.668343 -22.668343 -0.309017
2369.107788 -95.107788 -0.587785
2370.470821 -155.470821 -0.809017
2355.682400 -197.682400 -0.951057
2356.012682 -218.012682 -1.000000
2362.111724 -214.111724 -0.951057
2363.216756 -186.216756 -0.809017
2352.175719 -137.175719 -0.587785
2341.091392 -72.091392 -0.309017
2352.349273 2.650727 -0.000000
2347.720649 80.279351 0.309017
2353.187739 152.812261 0.587785
2351.603840 213.396160 0.809017
2378.068911 255.931089 0.951057
2378.047282 276.952718 1.000000
2386.226480 273.773520 0.951057
2388.090310 246.909690 0.809017
2382.157030 198.842970 0.587785
2373.914180 134.085820 0.309017
2360.087879 58.912121 0.000000
2366.469274 -19.469274 -0.309017
2381.897572 -92.897572 -0.587785
2394.951121 -153.951121 -0.809017
2366.694063 -196.694063 -0.951057
2367.959215 -217.959215 -1.000000
2372.961515 -214.961515 -0.951057
2366.899423 -187.899423 -0.809017
2359.692453 -139.692453 -0.587785
2357.095479 -75.095479 -0.309017
2375.325272 -0.325272 -0.000000
2381.183368 77.816632 0.309017
2386.605829 151.394171 0.587785
2375.798659 213.201341 0.809017
2372.211081 256.788919 0.951057
2370.942485 278.057515 1.000000
2366.021203 274.978797 0.951057
2365.238740 247.761260 0.809017
2387.833403 199.166597 0.587785
2382.464938 134.535062 0.309017
2372.478192 59.521808 0.000000
2375.652371 -18.652371 -0.309017
2381.018437 -92.018437 -0.587785
2375.336129 -153.336129 -0.809017
2383.872886 -196.872886 -0.951057
2375.018504 -218.018504 -1.000000
2372.127435 -215.127435 -0.951057
2357.344428 -188.344428 -0.809017
2351.592028 -140.592028 -0.587785
2372.336893 -76.336893 -0.309017
2390.213373 -1.213373 0.000000
2375.621406 77.378594 0.309017
2364.043961 150.956039 0.587785
2374.625800 212.374200 0.809017
2393.839146 256.160854 0.951057
2388.741407 278.258593 1.000000
2397.079930 275.920070 0.951057
2407.296135 249.703865 0.809017
2395.766654 202.233346 0.587785
2383.375882 137.624118 0.309017
2384.835058 62.164942 0.000000
2403.426624 -16.426624 -0.309017
2407.027395 -90.027395 -0.587785
2412.784836 -151.784836 -0.809017
2403.595377 -195.595377 -0.951057
2398.537163 -217.537163 -1.000000
2397.370343 -215.370343 -0.951057
2389.215925 -189.215925 -0.809017
2382.810203 -141.810203 -0.587785
2383.759839 -77.759839 -0.309017
2387.158484 -3.158484 -0.000000
2375.246250 74.753750 0.309017
2384.028344 147.971656 0.587785
2382.169062 209.830938 0.809017
2374.978909 254.021091 0.951057
2388.919074 276.080926 1.000000
2388.629465 274.370535 0.951057
2405.281345 248.718655 0.809017
2400.940548 202.059452 0.587785
2404.544185 138.455815 0.309017
2414.672992 64.327008 0.000000
2410.903186 -12.903186 -0.309017
2404.010008 -86.010008 -0.587785
2404.919950 -147.919950 -0.809017
2395.386193 -192.386193 -0.951057
2388.316050 -215.316050 -1.000000
2394.415062 -214.415062 -0.951057
2387.450845 -189.450845 -0.809017
2375.186190 -143.186190 -0.587785
2389.290836 -80.290836 -0.309017
2402.277191 -6.277191 -0.000000
2398.400927 71.599073 0.309017
2412.690790 145.309210 0.587785
2401.912633 208.087367 0.809017
2378.820833 253.179167 0.951057
2384.150320 275.849680 1.000000
2381.437963 274.562037 0.951057
2378.752246 249.247754 0.809017
2388.617881 202.382119 0.587785
2388.136837 138.863163 0.309017
2366.338030 64.661970 -0.000000
2365.491665 -13.491665 -0.309017
2363.450380 -87.450380 -0.587785
2374.005489 -150.005489 -0.809017
2369.721251 -194.721251 -0.951057
2364.578644 -217.578644 -1.000000
2357.366928 -216.366928 -0.951057
2357.262734 -191.262734 -0.809017
2362.554573 -144.554573 -0.587785
2362.679790 -80.679790 -0.309017
2346.013586 -6.013586 0.000000
2325.284441 71.715559 0.309017
2320.222991 144.777009 0.587785
2318.614671 206.385329 0.809017
2322.409999 250.590001 0.951057
2315.802912 273.197088 1.000000
2315.261765 271.738235 0.951057
2341.500193 246.499807 0.809017
2366.378854 200.621146 0.587785
2356.408714 138.591286 0.309017
2338.358638 65.641362 0.000000
2317.301977 -11.301977 -0.309017
2313.804230 -84.804230 -0.587785
2316.257278 -147.257278 -0.809017
2309.403289 -192.403289 -0.951057
2315.052734 -216.052734 -1.000000
2298.586439 -215.586439 -0.951057
2280.596031 -191.596031 -0.809017
2283.488107 -146.488107 -0.587785
2293.178097 -84.178097 -0.309017
2298.591853 -10.591853 -0.000000
2276.027556 66.972444 0.309017
2282.770570 140.229430 0.587785
2290.286723 202.713277 0.809017
2290.664792 248.335208 0.951057
2281.539825 272.460175 1.000000
2278.510454 272.489546 0.951057
2277.438330 248.561670 0.809017
2291.936001 203.063999 0.587785
2296.161906 140.838094 0.309017
2282.263993 67.736007 0.000000
2270.534446 -9.534446 -0.309017
2279.372292 -83.372292 -0.587785
2282.049933 -146.049933 -0.809017
2267.575238 -191.575238 -0.951057
2250.917405 -215.917405 -1.000000
2248.765941 -216.765941 -0.951057
2254.695510 -193.695510 -0.809017
2235.765013 -148.765013 -0.587785
2251.986806 -86.986806 -0.309017
2277.552526 -13.552526 0.000000
2260.396986 64.603014 0.309017
2244.207343 138.792657 0.587785
2245.242641 201.757359 0.809017
2257.255489 247.744511 0.951057
2255.471726 272.528274 1.000000
2249.647574 273.352426 0.951057
2242.966899 250.033101 0.809017
2253.175584 204.824416 0.587785
2250.434227 142.565773 0.309017
2246.959779 69.040221 -0.000000
2257.576728 -8.576728 -0.309017
2252.339352 -82.339352 -0.587785
2246.410619 -145.410619 -0.809017
2226.640367 -191.640367 -0.951057
2212.856597 -216.856597 -1.000000
2225.465499 -218.465499 -0.951057
2232.666630 -195.666630 -0.809017
2233.811469 -150.811469 -0.587785
2245.433348 -88.433348 -0.309017
2237.374945 -14.374945 -0.000000
2225.363398 63.636602 0.309017
2205.143711 137.856289 0.587785
2202.200925 200.799075 0.809017
2221.289135 246.710865 0.951057
2235.355334 271.644666 1.000000
2248.942410 273.057590 0.951057
2243.183436 250.816564 0.809017
2247.368332 206.631668 0.587785
2248.930424 145.069576 0.309017
2245.904032 72.095968 0.000000
2237.258795 -5.258795 -0.309017
2230.566861 -79.566861 -0.587785
2225.516186 -143.516186 -0.809017
2228.814121 -190.814121 -0.951057
2230.628279 -216.628279 -1.000000
2233.464849 -218.464849 -0.951057
2233.116276 -196.116276 -0.809017
2224.846351 -151.846351 -0.587785
2242.186983 -90.186983 -0.309017
2238.543675 -16.543675 -0.000000
2232.628529 61.371471 0.309017
2236.129676 135.870324 0.587785
2235.111412 199.888588 0.809017
2240.948994 247.051006 0.951057
2247.088856 272.911144 1.000000
2233.047669 274.952331 0.951057
2234.522254 252.477746 0.809017
2240.941926 208.058074 0.587785
2246.833147 146.166853 0.309017
2239.142931 72.857069 0.000000
2252.027531 -5.027531 -0.309017
2242.358101 -79.358101 -0.587785
2231.406730 -143.406730 -0.809017
2228.947773 -190.947773 -0.951057
2223.128671 -217.128671 -1.000000
2231.473668 -219.473668 -0.951057
2222.406237 -197.406237 -0.809017
2230.511591 -153.511591 -0.587785
2251.668220 -91.668220 -0.309017
2248.593583 -17.593583 0.000000
2223.118518 60.881482 0.309017
2208.488483 135.511517 0.587785
2219.768831 199.231169 0.809017
2242.567028 246.432972 0.951057
2232.201765 272.798235 1.000000
2219.055050 274.944950 0.951057
2220.419237 252.580763 0.809017
2219.758476 208.241524 0.587785
2215.781490 146.218510 0.309017
2209.500747 72.499253 0.000000
2225.762553 -5.762553 -0.309017
2242.350219 -80.350219 -0.587785
2258.934539 -143.934539 -0.809017
2247.271225 -190.271225 -0.951057
2245.510417 -215.510417 -1.000000
2238.948237 -216.948237 -0.951057
2229.566128 -194.566128 -0.809017
2213.633536 -150.633536 -0.587785
2216.626130 -89.626130 -0.309017
2224.062105 -17.062105 -0.000000
2240.929789 60.070211 0.309017
2229.534538 134.465462 0.587785
2204.844611 198.155389 0.809017
2210.440733 244.559267 0.951057
2226.138297 269.861703 1.000000
2230.154700 271.845300 0.951057
2223.956930 250.043070 0.809017
2229.661274 206.338726 0.587785
2220.699676 145.300324 0.309017
2223.456942 72.543058 0.000000
2225.529076 -4.529076 -0.309017
2216.385477 -78.385477 -0.587785
2228.074422 -142.074422 -0.809017
2220.851968 -188.851968 -0.951057
2209.597687 -214.597687 -1.000000
2207.901039 -216.901039 -0.951057
2223.311388 -195.311388 -0.809017
2214.516479 -151.516479 -0.587785
2206.389540 -90.389540 -0.309017
2213.908162 -17.908162 -0.000000
2220.786133 59.213867 0.309017
2217.579511 133.420489 0.587785
2228.795857 197.204143 0.809017
2227.322107 244.677893 0.951057
2233.108853 270.891147 1.000000
2227.542320 273.457680 0.951057
2239.150491 251.849509 0.809017
2249.395650 208.604350 0.587785
2222.064531 147.935469 0.309017
2211.145313 74.854687 -0.000000
2210.107485 -3.107485 -0.309017
2206.085891 -78.085891 -0.587785
2205.816987 -142.816987 -0.809017
2193.875546 -190.875546 -0.951057
2198.849403 -217.849403 -1.000000
2218.689898 -220.689898 -0.951057
2214.741233 -198.741233 -0.809017
2181.722347 -154.722347 -0.587785
2182.673703 -93.673703 -0.309017
2197.762313 -20.762313 0.000000
2206.770657 57.229343 0.309017
2194.466646 132.533354 0.587785
2192.743346 197.256654 0.809017
2189.686864 245.313136 0.951057
2202.036741 271.963259 1.000000
2207.020256 274.979744 0.951057
2202.101733 253.898267 0.809017
2211.459023 210.540977 0.587785
2189.497136 149.502864 0.309017
2175.012764 75.987236 0.000000
2173.649622 -2.649622 -0.309017
2193.399877 -78.399877 -0.587785
2221.322400 -143.322400 -0.809017
2208.833649 -190.833649 -0.951057
2200.259009 -217.259009 -1.000000
2217.929208 -219.929208 -0.951057
2210.937240 -197.937240 -0.809017
2180.030767 -154.030767 -0.587785
2180.114076 -93.114076 -0.309017
2173.413190 -20.413190 -0.000000
2166.214082 56.785918 0.309017
2165.094192 130.905808 0.587785
2166.165721 194.834279 0.809017
2183.633017 242.366983 0.951057
2189.737707 269.262293 1.000000
2175.375184 272.624816 0.951057
2165.378805 251.621195 0.809017
2202.601011 208.398989 0.587785
2210.642678 148.357322 0.309017
2203.310476 76.689524 0.000000
2176.963571 0.036429 -0.309017
2168.582962 -74.582962 -0.587785
2183.447464 -139.447464 -0.809017
2177.636814 -187.636814 -0.951057
2169.932593 -214.932593 -1.000000
2171.717350 -218.717350 -0.951057
2168.392808 -198.392808 -0.809017
2147.074024 -156.074024 -0.587785
2153.357379 -96.357379 -0.309017
2154.424387 -24.424387 -0.000000
2152.439070 52.560930 0.309017
2155.012290 126.987710 0.587785
2141.317925 191.682075 0.809017
2147.092251 239.907749 0.951057
2166.585971 267.414029 1.000000
2164.141543 271.858457 0.951057
2162.718618 252.281382 0.809017
2170.378311 210.621689 0.587785
2167.817355 151.182645 0.309017
2184.463586 79.536414 -0.000000
2166.826727 3.173273 -0.309017
2151.268530 -71.268530 -0.587785
2159.471726 -136.471726 -0.809017
2158.478775 -185.478775 -0.951057
2134.712391 -213.712391 -1.000000
2141.979422 -218.979422 -0.951057
2155.017539 -200.017539 -0.809017
2139.529694 -158.529694 -0.587785
2146.274203 -99.274203 -0.309017
2143.514548 -27.514548 -0.000000
2148.504415 49.495585 0.309017
2152.591731 124.408269 0.587785
2147.125930 189.874070 0.809017
2148.749088 239.250912 0.951057
2148.124017 267.875983 1.000000
2148.106960 272.893040 0.951057
2144.174583 253.825417 0.809017
2167.558321 212.441679 0.587785
2149.529153 153.470847 0.309017
2142.321313 81.678687 0.000000
2135.658812 4.341188 -0.309017
2132.966503 -70.966503 -0.587785
2138.781641 -136.781641 -0.809017
2124.452390 -186.452390 -0.951057
2108.613126 -215.613126 -1.000000
2122.464676 -221.464676 -0.951057
2140.711360 -202.711360 -0.809017
2127.062056 -161.062056 -0.587785
2132.368762 -101.368762 -0.309017
2123.017474 -29.017474 -0.000000
2141.450396 48.549604 0.309017
2144.577172 124.422828 0.587785
2120.184901 190.815099 0.809017
2119.456672 240.543328 0.951057
2123.698474 269.301526 1.000000
2118.602000 274.398000 0.951057
2129.894397 255.105603 0.809017
2131.283704 213.716296 0.587785
2118.952206 154.047794 0.309017
2131.400457 81.599543 0.000000
2129.932310 4.067690 -0.309017
2129.291087 -71.291087 -0.587785
2130.081268 -137.081268 -0.809017
2110.827852 -186.827852 -0.951057
2100.161420 -216.161420 -1.000000
2099.019481 -222.019481 -0.951057
2102.603546 -203.603546 -0.809017
2096.599543 -162.599543 -0.587785
2113.256545 -103.256545 -0.309017
2121.824280 -30.824280 0.000000
2118.574773 47.425227 0.309017
2120.452578 123.547422 0.587785
2109.784860 190.215140 0.809017
2110.408860 240.591140 0.951057
2104.986491 270.013509 1.000000
2107.548216 275.451784 0.951057
2112.433404 256.566596 0.809017
2141.732218 215.267782 0.587785
2137.785727 156.214273 0.309017
2140.608644 84.391356 0.000000
2123.006034 6.993966 -0.309017
2114.908887 -68.908887 -0.587785
2120.671203 -135.671203 -0.809017
2107.421244 -186.421244 -0.951057
2102.659498 -216.659498 -1.000000
2105.230041 -223.230041 -0.951057
2105.312221 -205.312221 -0.809017
2089.719024 -164.719024 -0.587785
2109.815778 -105.815778 -0.309017
2115.495175 -33.495175 -0.000000
2106.172302 44.827698 0.309017
2100.882056 121.117944 0.587785
2084.002849 187.997151 0.809017
2091.377481 238.622519 0.951057
2089.375823 268.624177 1.000000
2082.160030 274.839970 0.951057
2083.471350 256.528650 0.809017
2099.312994 215.687006 0.587785
2089.322235 156.677765 0.309017
2096.349265 84.650735 0.000000
2089.930355 7.069645 -0.309017
2092.798877 -68.798877 -0.587785
2102.303962 -135.303962 -0.809017
2089.766203 -185.766203 -0.951057
2087.785446 -215.785446 -1.000000
2095.174614 -222.174614 -0.951057
2083.076466 -204.076466 -0.809017
2065.740717 -163.740717 -0.587785
2079.261454 -105.261454 -0.309017
2090.612834 -33.612834 -0.000000
2103.846014 44.153986 0.309017
2106.512418 120.487582 0.587785
2104.332086 187.667914 0.809017
2108.999005 239.000995 0.951057
2118.369499 269.630501 1.000000
2120.318499 276.681501 0.951057
2107.710278 259.289722 0.809017
2130.203952 218.796048 0.587785
2117.973599 160.026401 0.309017
2133.107014 87.892986 -0.000000
2122.874147 10.125853 -0.309017
2114.278247 -66.278247 -0.587785
2110.811947 -133.811947 -0.809017
2114.746856 -185.746856 -0.951057
2119.818433 -216.818433 -1.000000
2123.951945 -223.951945 -0.951057
2120.466359 -206.466359 -0.809017
2110.258708 -166.258708 -0.587785
2114.437112 -107.437112 -0.309017
2116.412277 -35.412277 -0.000000
2124.284465 42.715535 0.309017
2131.551527 119.448473 0.587785
2127.730115 187.269885 0.809017
2119.727380 239.272620 0.951057
2118.742922 270.257078 1.000000
2115.644050 277.355950 0.951057
2118.179716 259.820284 0.809017
2138.496335 219.503665 0.587785
2120.199810 160.800190 0.309017
2133.484304 88.515696 0.000000
2135.506970 10.493030 -0.309017
2137.895696 -65.895696 -0.587785
2139.161395 -133.161395 -0.809017
2127.744785 -184.744785 -0.951057
2123.912034 -215.912034 -1.000000
2124.436646 -223.436646 -0.951057
2138.477815 -206.477815 -0.809017
2133.357035 -166.357035 -0.587785
2149.463475 -107.463475 -0.309017
2141.037632 -35.037632 -0.000000
2147.762652 43.237348 0.309017
2137.932173 120.067827 0.587785
2118.472557 187.527443 0.809017
2135.239978 238.760022 0.951057
2134.367572 269.632428 1.000000
2118.297825 276.702175 0.951057
2106.103774 258.896226 0.809017
2131.965218 218.034782 0.587785
2139.945889 159.054111 0.309017
2148.687722 87.312278 0.000000
2138.139334 9.860666 -0.309017
2114.190779 -66.190779 -0.587785
2110.745524 -133.745524 -0.809017
2096.707560 -185.707560 -0.951057
2077.259514 -217.259514 -1.000000
2072.465290 -225.465290 -0.951057
2085.179100 -209.179100 -0.809017
2083.563316 -169.563316 -0.587785
2090.838489 -110.838489 -0.309017
2097.532718 -38.532718 0.000000
2106.729417 40.270583 0.309017
2090.071650 117.928350 0.587785
2072.796209 186.203791 0.809017
2074.622194 238.377806 0.951057
2087.200363 269.799637 1.000000
2098.335465 277.664535 0.951057
2100.818057 261.181943 0.809017
2115.237397 221.762603 0.587785
2101.433388 163.566612 0.309017
2099.397342 91.602658 -0.000000
2099.807616 13.192384 -0.309017
2115.930201 -63.930201 -0.587785
2109.822490 -131.822490 -0.809017
2089.374743 -184.374743 -0.951057
2074.808754 -216.808754 -1.000000
2068.827631 -225.827631 -0.951057
2080.351745 -210.351745 -0.809017
2072.465671 -171.465671 -0.587785
2091.447003 -113.447003 -0.309017
2074.312976 -41.312976 -0.000000
2066.004230 36.995770 0.309017
2066.986504 114.013496 0.587785
2069.576721 182.423279 0.809017
2073.429906 235.570094 0.951057
2071.713695 268.286305 1.000000
2072.765101 277.234899 0.951057
2078.392983 261.607017 0.809017
2088.951877 223.048123 0.587785
2078.537208 165.462792 0.309017
2071.023542 93.976458 0.000000
2058.353517 15.646483 -0.309017
2070.997752 -61.997752 -0.587785
2083.738534 -130.738534 -0.809017
2079.829152 -183.829152 -0.951057
2084.473390 -216.473390 -1.000000
2089.266747 -225.266747 -0.951057
2087.339057 -209.339057 -0.809017
2071.411593 -170.411593 -0.587785
2064.647201 -112.647201 -0.309017
2050.490673 -41.490673 -0.000000
2065.100387 35.899613 0.309017
2086.350008 112.649992 0.587785
2096.568525 181.431475 0.809017
2084.738524 235.261476 0.951057
2082.667972 268.332028 1.000000
2075.364533 277.635467 0.951057
2099.872248 262.127752 0.809017
2119.886772 224.113228 0.587785
2100.769320 167.230680 0.309017
2093.905643 96.094357 0.000000
2086.049468 17.950532 -0.309017
2088.584746 -59.584746 -0.587785
2094.671607 -128.671607 -0.809017
2099.455459 -182.455459 -0.951057
2104.696690 -215.696690 -1.000000
2114.124128 -225.124128 -0.951057
2121.703883 -209.703883 -0.809017
2123.980051 -170.980051 -0.587785
2129.866507 -112.866507 -0.309017
2115.958767 -40.958767 0.000000
2139.783314 37.216686 0.309017
2137.066216 114.933784 0.587785
2132.049354 183.950646 0.809017
2147.549397 237.450603 0.951057
2176.296511 270.703489 1.000000
2188.195577 280.804423 0.951057
2192.621371 266.378629 0.809017
2210.334069 228.665931 0.587785
2232.304500 171.695500 0.309017
2265.827887 101.172113 0.000000
2303.685201 24.314799 -0.309017
2361.203746 -51.203746 -0.587785
2418.453389 -117.453389 -0.809017
2456.885496 -167.885496 -0.951057
2493.963811 -197.963811 -1.000000
2532.730876 -204.730876 -0.951057
2580.436699 -187.436699 -0.809017
2616.503249 -147.503249 -0.587785
2693.072101 -89.072101 -0.309017
2744.806214 -16.806214 -0.000000
2830.306656 61.693344 0.309017
2841.350053 139.649947 0.587785
2840.324147 207.675853 0.809017
2851.176010 258.823990 0.951057
2861.616687 288.383313 1.000000
2853.536653 293.463347 0.951057
2817.883420 273.116580 0.809017
2794.364521 228.635479 0.587785
2764.366102 164.633898 0.309017
2759.814008 87.185992 0.000000
2732.527647 4.472353 -0.309017
2726.984356 -75.984356 -0.587785
2704.798285 -145.798285 -0.809017
2658.558410 -198.558410 -0.951057
2597.728695 -229.728695 -1.000000
2524.679300 -236.679300 -0.951057
2473.109774 -219.109774 -0.809017
2406.292329 -178.292329 -0.587785
2362.666760 -118.666760 -0.309017
2312.571593 -45.571593 -0.000000
2290.377011 33.622989 0.309017
2272.198914 111.801086 0.587785
2246.616662 181.383338 0.809017
2240.648799 235.351201 0.951057
2249.119016 268.880984 1.000000
2245.955793 279.044207 0.951057
2244.434449 264.565551 0.809017
2257.100535 226.899465 0.587785
2263.914209 170.085791 0.309017
2279.444964 99.555036 -0.000000
2262.562494 22.437506 -0.309017
2251.509327 -54.509327 -0.587785
2246.628293 -123.628293 -0.809017
2241.012769 -178.012769 -0.951057
2229.363558 -212.363558 -1.000000
2217.475877 -223.475877 -0.951057
2217.282193 -210.282193 -0.809017
2209.796189 -173.796189 -0.587785
2207.771916 -117.771916 -0.309017
2196.566036 -47.566036 -0.000000
2216.282807 29.717193 0.309017
2214.727894 107.272106 0.587785
2208.000581 176.999419 0.809017
2213.057474 231.942526 0.951057
2215.990414 267.009586 1.000000
2218.278921 278.721079 0.951057
2208.081919 265.918081 0.809017
2220.455499 229.544501 0.587785
2213.287374 173.712626 0.309017
2210.585734 103.414266 0.000000
2199.366394 25.633606 -0.309017
2200.231889 -52.231889 -0.587785
2203.271809 -122.271809 -0.809017
2197.574740 -177.574740 -0.951057
2189.941949 -212.941949 -1.000000
2186.966812 -224.966812 -0.951057
2194.365150 -212.365150 -0.809017
2205.114805 -176.114805 -0.587785
2215.671377 -119.671377 -0.309017
2198.551617 -48.551617 -0.000000
2202.396213 29.603787 0.309017
2206.352400 107.647600 0.587785
2207.052156 177.947844 0.809017
2214.453528 233.546472 0.951057
2217.830502 269.169498 1.000000
2209.761660 281.238340 0.951057
2206.710399 268.289601 0.809017
2222.293639 231.706361 0.587785
2212.468228 175.531772 0.309017
2226.351556 104.648444 0.000000
2203.424372 26.575628 -0.309017
2218.947640 -51.947640 -0.587785
2238.301748 -122.301748 -0.809017
2228.485180 -177.485180 -0.951057
2210.801783 -212.801783 -1.000000
2215.003205 -225.003205 -0.951057
2221.369601 -212.369601 -0.809017
2222.078371 -176.078371 -0.587785
2230.815605 -119.815605 -0.309017
2241.887116 -48.887116 -0.000000
2243.166830 29.833170 0.309017
2220.591686 108.408314 0.587785
2230.447972 178.552028 0.809017
2241.818679 234.181321 0.951057
2238.099271 269.900729 1.000000
2229.149552 281.850448 0.951057
2220.274551 268.725449 0.809017
2229.198587 231.801413 0.587785
2231.873160 175.126840 0.309017
2239.895885 104.104115 0.000000
2230.177586 25.822414 -0.309017
2241.489216 -52.489216 -0.587785
2232.651228 -122.651228 -0.809017
2251.285575 -178.285575 -0.951057
2237.270387 -213.270387 -1.000000
2230.974543 -224.974543 -0.951057
2240.076524 -212.076524 -0.809017
2241.461636 -175.461636 -0.587785
2237.895784 -118.895784 -0.309017
2231.038107 -48.038107 -0.000000
2246.911307 30.088693 0.309017
2229.603099 108.396901 0.587785
2225.588948 178.411052 0.809017
2228.411154 233.588846 0.951057
2226.304907 268.695093 1.000000
2235.826408 280.173592 0.951057
2231.811138 267.188862 0.809017
2238.314828 230.685172 0.587785
2225.506183 174.493817 0.309017
2236.359651 103.640349 0.000000
2247.363722 25.636278 -0.309017
2254.865767 -51.865767 -0.587785
2251.353433 -121.353433 -0.809017
2262.290964 -176.290964 -0.951057
2235.943741 -210.943741 -1.000000
2213.838446 -222.838446 -0.951057
2236.736932 -210.736932 -0.809017
2222.725732 -174.725732 -0.587785
2222.224597 -119.224597 -0.309017
2220.345759 -49.345759 -0.000000
2232.964499 28.035501 0.309017
2229.295294 105.704706 0.587785
2212.332707 175.667293 0.809017
2225.261985 230.738015 0.951057
2239.747294 266.252706 1.000000
2238.210339 278.789661 0.951057
2229.261156 266.738844 0.809017
2248.907314 231.092686 0.587785
2251.955585 176.044415 0.309017
2254.408369 106.591631 0.000000
2237.478302 29.521698 -0.309017
2234.102810 -48.102810 -0.587785
2237.365318 -118.365318 -0.809017
2228.226222 -174.226222 -0.951057
2228.523516 -210.523516 -1.000000
2227.479439 -223.479439 -0.951057
2227.858948 -211.858948 -0.809017
2221.765224 -176.765224 -0.587785
2236.794851 -121.794851 -0.309017
2230.808086 -51.808086 0.000000
2232.162741 25.837259 0.309017
2232.283072 103.716928 0.587785
2239.821685 174.178315 0.809017
2237.490227 230.509773 0.951057
2241.040341 266.959659 1.000000
2241.895809 280.104191 0.951057
2248.406333 268.593667 0.809017
2260.302758 233.697242 0.587785
2248.026566 178.973434 0.309017
2248.810768 109.189232 0.000000
2250.512912 31.487088 -0.309017
2261.503061 -46.503061 -0.587785
2273.912715 -116.912715 -0.809017
2259.800751 -172.800751 -0.951057
2252.344313 -209.344313 -1.000000
2235.817144 -222.817144 -0.951057
2238.136320 -212.136320 -0.809017
2230.896419 -177.896419 -0.587785
2229.685219 -123.685219 -0.309017
2220.667432 -54.667432 -0.000000
2237.795647 22.204353 0.309017
2237.951993 100.048007 0.587785
2224.159689 170.840311 0.809017
2215.696903 227.303097 0.951057
2220.974244 264.025756 1.000000
2230.253235 277.746765 0.951057
2237.770483 267.229517 0.809017
2242.529179 233.470821 0.587785
2244.284550 179.715450 0.309017
2248.843908 111.156092 0.000000
2244.423937 34.576063 -0.309017
2248.747355 -42.747355 -0.587785
2255.032031 -113.032031 -0.809017
2248.343688 -169.343688 -0.951057
2239.486786 -206.486786 -1.000000
2243.887897 -220.887897 -0.951057
2251.816726 -210.816726 -0.809017
2243.165533 -177.165533 -0.587785
2248.633129 -123.633129 -0.309017
2246.117254 -55.117254 -0.000000
2247.517617 21.482383 0.309017
2245.237496 98.762504 0.587785
2253.931907 169.068093 0.809017
2252.211276 225.788724 0.951057
2258.877553 263.122447 1.000000
2247.377655 277.622345 0.951057
2254.576930 267.423070 0.809017
2267.023594 233.976406 0.587785
2255.303661 180.696339 0.309017
2271.790643 112.209357 0.000000
2268.089723 35.910277 -0.309017
2282.216740 -41.216740 -0.587785
2279.180795 -111.180795 -0.809017
2270.545107 -167.545107 -0.951057
2271.936053 -204.936053 -1.000000
2274.453446 -219.453446 -0.951057
2271.646360 -209.646360 -0.809017
2264.604814 -176.604814 -0.587785
2271.672439 -123.672439 -0.309017
2276.686512 -55.686512 -0.000000
2305.344661 20.655339 0.309017
2306.522520 98.477480 0.587785
2267.489805 169.510195 0.809017
2256.203515 225.796485 0.951057
2262.527444 262.472556 1.000000
2273.625257 276.374743 0.951057
2279.730710 266.269290 0.809017
2296.965841 233.034159 0.587785
2299.791652 180.208348 0.309017
2302.376329 112.623671 0.000000
2295.106783 36.893217 -0.309017
2305.813183 -39.813183 -0.587785
2298.546468 -109.546468 -0.809017
2285.916887 -165.916887 -0.951057
2290.549472 -203.549472 -1.000000
2296.344383 -218.344383 -0.951057
2288.818666 -208.818666 -0.809017
2287.230688 -176.230688 -0.587785
2275.631153 -123.631153 -0.309017
2272.421102 -56.421102 0.000000
2301.983978 19.016022 0.309017
2287.888699 96.111301 0.587785
2287.737167 166.262833 0.809017
2298.064957 222.935043 0.951057
2295.157742 260.842258 1.000000
2293.044382 275.955618 0.951057
2297.187989 266.812011 0.809017
2313.539686 234.460314 0.587785
2304.622389 182.377611 0.309017
2305.949599 115.050401 -0.000000
2293.685657 39.314343 -0.309017
2299.755146 -37.755146 -0.587785
2313.170636 -108.170636 -0.809017
2306.848293 -164.848293 -0.951057
2288.717143 -202.717143 -1.000000
2298.373276 -218.373276 -0.951057
2291.611663 -209.611663 -0.809017
2295.688580 -177.688580 -0.587785
2315.466192 -125.466192 -0.309017
2310.658883 -57.658883 0.000000
2305.494530 18.505470 0.309017
2300.443437 95.556563 0.587785
2287.051390 165.948610 0.809017
2271.423558 222.576442 0.951057
2286.175348 259.824652 1.000000
2295.212506 274.787494 0.951057
2287.124515 265.875485 0.809017
2290.456076 233.543924 0.587785
2303.766758 181.233242 0.309017
2316.682474 114.317526 0.000000
2310.646633 39.353367 -0.309017
2312.779207 -36.779207 -0.587785
2295.430985 -106.430985 -0.809017
2281.268374 -163.268374 -0.951057
2265.669324 -201.669324 -1.000000
2265.928120 -217.928120 -0.951057
2263.075880 -210.075880 -0.809017
2238.958695 -178.958695 -0.587785
2243.157645 -128.157645 -0.309017
2248.967097 -61.967097 -0.000000
2263.820843 13.179157 0.309017
2253.841506 90.158494 0.587785
2256.167012 160.832988 0.809017
2259.420062 218.579938 0.951057
2273.227296 257.772704 1.000000
2274.157341 274.842659 0.951057
2261.186157 267.813843 0.809017
2273.972108 237.027892 0.587785
2268.873594 186.126406 0.309017
2260.339489 119.660511 0.000000
2253.955777 44.044223 -0.309017
2252.277291 -33.277291 -0.587785
2232.625442 -104.625442 -0.809017
2235.467566 -163.467566 -0.951057
2235.505480 -203.505480 -1.000000
2219.886623 -220.886623 -0.951057
2224.300979 -214.300979 -0.809017
2214.911480 -183.911480 -0.587785
2206.032555 -133.032555 -0.309017
2206.643312 -66.643312 -0.000000
2217.016016 8.983984 0.309017
2208.308797 86.691203 0.587785
2206.592485 158.407515 0.809017
2200.723054 217.276946 0.951057
2196.568983 257.431017 1.000000
2201.025128 274.974872 0.951057
2204.598632 268.401368 0.809017
2210.662649 238.337351 0.587785
2211.207667 187.792333 0.309017
2225.416544 121.583456 0.000000
2224.466030 46.533970 -0.309017
2222.371356 -30.371356 -0.587785
2216.634262 -101.634262 -0.809017
2212.372660 -160.372660 -0.951057
2190.806960 -200.806960 -1.000000
2181.416987 -219.416987 -0.951057
2192.103058 -214.103058 -0.809017
2186.894923 -184.894923 -0.587785
2187.035960 -135.035960 -0.309017
2174.279354 -69.279354 -0.000000
2184.384088 5.615912 0.309017
2176.125508 82.874492 0.587785
2200.512942 154.487058 0.809017
2196.750279 214.249721 0.951057
2184.361420 255.638580 1.000000
2188.618052 274.381948 0.951057
2190.953929 269.046071 0.809017
2189.889548 240.110452 0.587785
2190.674638 190.325362 0.309017
2199.390952 124.609048 0.000000
2186.406479 49.593521 -0.309017
2184.910031 -27.910031 -0.587785
2193.043707 -100.043707 -0.809017
2178.507638 -159.507638 -0.951057
2167.037872 -201.037872 -1.000000
2165.510269 -220.510269 -0.951057
2169.784215 -215.784215 -0.809017
2164.179159 -187.179159 -0.587785
2181.736910 -137.736910 -0.309017
2184.725006 -71.725006 -0.000000
2181.947912 4.052088 0.309017
2172.963690 82.036310 0.587785
2180.564557 154.435443 0.809017
2184.433808 214.566192 0.951057
2184.541451 256.458549 1.000000
2182.077508 275.922492 0.951057
2186.011403 270.988597 0.809017
2178.703240 242.296760 0.587785
2188.620701 192.379299 0.309017
2205.455819 126.544181 -0.000000
2187.579117 51.420883 -0.309017
2189.484199 -26.484199 -0.587785
2189.072503 -99.072503 -0.809017
2190.294167 -159.294167 -0.951057
2178.213947 -201.213947 -1.000000
2170.059493 -221.059493 -0.951057
2173.804822 -216.804822 -0.809017
2171.578895 -188.578895 -0.587785
2175.289361 -139.289361 -0.309017
2175.615336 -73.615336 0.000000
2169.065523 1.934477 0.309017
2159.206761 79.793239 0.587785
2170.751146 152.248854 0.809017
2184.268122 212.731878 0.951057
2184.614749 255.385251 1.000000
2185.278956 275.721044 0.951057
2178.242988 271.757012 0.809017
2188.310510 243.689490 0.587785
2189.315099 194.684901 0.309017
2185.674100 129.325900 -0.000000
2180.104628 53.895372 -0.309017
2184.275684 -24.275684 -0.587785
2182.298643 -97.298643 -0.809017
2171.174108 -158.174108 -0.951057
2174.174270 -201.174270 -1.000000
2174.750468 -221.750468 -0.951057
2179.945488 -217.945488 -0.809017
2167.015614 -190.015614 -0.587785
2175.141581 -141.141581 -0.309017
2179.596945 -75.596945 -0.000000
2189.879494 0.120506 0.309017
2179.249849 78.750151 0.587785
2166.915050 152.084950 0.809017
2176.109254 212.890746 0.951057
2189.261422 255.738578 1.000000
2180.455602 276.544398 0.951057
2171.261267 272.738733 0.809017
2179.326380 244.673620 0.587785
2192.483498 195.516502 0.309017
2192.783609 130.216391 0.000000
2189.140010 54.859990 -0.309017
2194.274518 -23.274518 -0.587785
2187.323788 -96.323788 -0.809017
2193.433096 -157.433096 -0.951057
2187.302642 -200.302642 -1.000000
2172.034575 -221.034575 -0.951057
2176.835450 -217.835450 -0.809017
2170.535378 -190.535378 -0.587785
2167.078330 -142.078330 -0.309017
2186.144252 -77.144252 -0.000000
2199.530500 -1.530500 0.309017
2178.757338 77.242662 0.587785
2177.373238 150.626762 0.809017
2168.102238 211.897762 0.951057
2177.140836 254.859164 1.000000
2196.247998 275.752002 0.951057
2199.206087 272.793913 0.809017
2208.105892 245.894108 0.587785
2215.162110 197.837890 0.309017
2207.705864 133.294136 0.000000
2194.773339 58.226661 -0.309017
2201.162438 -20.162438 -0.587785
2201.732673 -93.732673 -0.809017
2192.420132 -155.420132 -0.951057
2180.432786 -199.432786 -1.000000
2167.540637 -221.540637 -0.951057
2176.616901 -219.616901 -0.809017
2170.316451 -193.316451 -0.587785
2157.587071 -145.587071 -0.309017
2157.269278 -81.269278 -0.000000
2168.364230 -6.364230 0.309017
2172.919226 72.080774 0.587785
2183.762934 146.237066 0.809017
2199.991496 209.008504 0.951057
2197.601528 254.398472 1.000000
2200.481723 277.518277 0.951057
2194.766379 276.233621 0.809017
2178.541109 250.458891 0.587785
2179.552644 202.447356 0.309017
2185.690214 137.309786 0.000000
2182.448311 61.551689 -0.309017
2187.638181 -17.638181 -0.587785
2182.301340 -92.301340 -0.809017
2175.386057 -155.386057 -0.951057
2184.763150 -200.763150 -1.000000
2175.591945 -223.591945 -0.951057
2188.090036 -222.090036 -0.809017
2194.873927 -195.873927 -0.587785
2188.637398 -147.637398 -0.309017
2187.419385 -82.419385 -0.000000
2191.486051 -6.486051 0.309017
2192.139652 72.860348 0.587785
2197.227518 147.772482 0.809017
2185.970913 211.029087 0.951057
2190.964221 256.035779 1.000000
2201.220537 278.779463 0.951057
2191.828486 277.171514 0.809017
2185.109330 250.890670 0.587785
2193.435186 202.564814 0.309017
2192.707680 137.292320 -0.000000
2191.753632 61.246368 -0.309017
2192.135687 -18.135687 -0.587785
2181.051142 -93.051142 -0.809017
2185.452947 -156.452947 -0.951057
2175.761297 -201.761297 -1.000000
2174.888045 -224.888045 -0.951057
2181.360781 -223.360781 -0.809017
2167.146425 -197.146425 -0.587785
2174.320277 -149.320277 -0.309017
2195.046582 -84.046582 0.000000
2204.367193 -7.367193 0.309017
2187.047807 72.952193 0.587785
2175.605238 148.394762 0.809017
2168.298604 211.701396 0.951057
2165.235401 256.764599 1.000000
2168.729583 279.270417 0.951057
2174.823991 277.176009 0.809017
2183.244329 250.755671 0.587785
2192.338783 202.661217 0.309017
2193.372379 137.627621 -0.000000
2192.169567 61.830433 -0.309017
2199.365438 -17.365438 -0.587785
2188.999251 -91.999251 -0.809017
2186.195576 -155.195576 -0.951057
2178.591937 -200.591937 -1.000000
2181.868052 -223.868052 -0.951057
2182.482803 -222.482803 -0.809017
2180.634312 -196.634312 -0.587785
2166.913640 -148.913640 -0.309017
2171.291083 -84.291083 -0.000000
2172.656685 -8.656685 0.309017
2179.484006 70.515994 0.587785
2168.384806 145.615194 0.809017
2155.150127 208.849873 0.951057
2157.036789 253.963211 1.000000
2160.098958 276.901042 0.951057
2158.550254 275.449746 0.809017
2186.360139 249.639861 0.587785
2192.270092 202.729908 0.309017
2183.201709 138.798291 0.000000
2173.264147 63.735853 -0.309017
2182.142595 -15.142595 -0.587785
2185.657642 -89.657642 -0.809017
2181.638456 -152.638456 -0.951057
2173.104092 -198.104092 -1.000000
2169.721853 -221.721853 -0.951057
2169.061509 -221.061509 -0.809017
2173.123789 -196.123789 -0.587785
2165.232513 -149.232513 -0.309017
2167.271595 -85.271595 -0.000000
2173.263371 -10.263371 0.309017
2165.448857 68.551143 0.587785
2165.880792 143.119208 0.809017
2169.661819 206.338181 0.951057
2178.895996 252.104004 1.000000
2171.922244 276.077756 0.951057
2161.481181 275.518819 0.809017
2159.613311 250.386689 0.587785
2186.656970 203.343030 0.309017
2197.286695 139.713305 0.000000
2181.651224 65.348776 -0.309017
2151.114862 -13.114862 -0.587785
2159.388694 -88.388694 -0.809017
2175.171503 -152.171503 -0.951057
2176.021934 -198.021934 -1.000000
2166.805827 -221.805827 -0.951057
2147.445669 -221.445669 -0.809017
2138.241596 -197.241596 -0.587785
2135.332655 -151.332655 -0.309017
2149.066619 -88.066619 -0.000000
2168.223894 -13.223894 0.309017
2161.978220 66.021780 0.587785
2166.698348 141.301652 0.809017
2153.486696 205.513304 0.951057
2147.071264 251.928736 1.000000
2159.841780 276.158220 0.951057
2160.698195 276.301805 0.809017
2159.936790 252.063210 0.587785
2165.224322 205.775678 0.309017
2166.879552 142.120448 0.000000
2159.755800 67.244200 -0.309017
2162.741107 -11.741107 -0.587785
2150.859830 -86.859830 -0.809017
2162.126838 -151.126838 -0.951057
2171.687059 -197.687059 -1.000000
2170.011737 -222.011737 -0.951057
2176.988994 -221.988994 -0.809017
2161.406792 -197.406792 -0.587785
2149.226857 -151.226857 -0.309017
2153.903612 -87.903612 -0.000000
2151.229065 -13.229065 0.309017
2141.690939 65.309061 0.587785
2142.151957 139.848043 0.809017
2128.670204 203.329796 0.951057
2125.807723 249.192277 1.000000
2153.804867 273.195133 0.951057
2158.243214 273.756786 0.809017
2154.732457 250.267543 0.587785
2168.166600 204.833400 0.309017
2163.678908 142.321092 0.000000
2156.581847 68.418153 -0.309017
2151.712009 -9.712009 -0.587785
2153.374472 -84.374472 -0.809017
2156.103405 -148.103405 -0.951057
2153.631880 -194.631880 -1.000000
2149.532039 -219.532039 -0.951057
2147.410212 -220.410212 -0.809017
2156.136004 -197.136004 -0.587785
2141.719062 -151.719062 -0.309017
2154.173004 -89.173004 0.000000
2160.966143 -14.966143 0.309017
2159.488645 63.511355 0.587785
2154.620888 138.379112 0.809017
2155.778015 202.221985 0.951057
2153.064743 248.935257 1.000000
2164.149039 273.850961 0.951057
2151.128205 274.871795 0.809017
2138.691233 251.308767 0.587785
2157.532947 205.467053 0.309017
2153.399289 142.600711 -0.000000
2157.687794 68.312206 -0.309017
2155.921090 -9.921090 -0.587785
2152.587289 -84.587289 -0.809017
2163.418883 -148.418883 -0.951057
2159.817534 -194.817534 -1.000000
2143.588990 -219.588990 -0.951057
2138.628535 -220.628535 -0.809017
2126.572565 -197.572565 -0.587785
2117.861417 -152.861417 -0.309017
2131.802860 -90.802860 0.000000
2145.915962 -16.915962 0.309017
2143.411939 61.588061 0.587785
2145.373469 136.626531 0.809017
2133.037267 200.962733 0.951057
2143.056051 247.943949 1.000000
2155.484890 273.515110 0.951057
2160.754357 275.245643 0.809017
2165.197625 252.802375 0.587785
2180.631998 208.368002 0.309017
2169.427715 146.572285 0.000000
2163.182863 72.817137 -0.309017
2153.567498 -5.567498 -0.587785
2154.000688 -81.000688 -0.809017
2165.859059 -145.859059 -0.951057
2184.507663 -193.507663 -1.000000
2179.098056 -219.098056 -0.951057
2182.703910 -220.703910 -0.809017
2183.949265 -197.949265 -0.587785
2146.116104 -153.116104 -0.309017
2153.568449 -91.568449 -0.000000
2170.245168 -18.245168 0.309017
2202.083926 59.916074 0.587785
2188.336233 135.663767 0.809017
2166.517507 200.482493 0.951057
2163.191252 247.808748 1.000000
2157.554477 273.445523 0.951057
2164.178522 274.821478 0.809017
2172.898451 252.101549 0.587785
2204.429777 207.570223 0.309017
2204.832509 146.167491 0.000000
2191.835753 73.164247 -0.309017
2174.627938 -4.627938 -0.587785
2171.715401 -79.715401 -0.809017
2194.411733 -144.411733 -0.951057
2192.747346 -191.747346 -1.000000
2195.669949 -217.669949 -0.951057
2193.529419 -219.529419 -0.809017
2190.266739 -197.266739 -0.587785
2176.091809 -153.091809 -0.309017
2196.605577 -91.605577 -0.000000
2187.976872 -17.976872 0.309017
2193.116444 59.883556 0.587785
2204.312166 134.687834 0.809017
2202.728710 199.271290 0.951057
2189.993734 247.006266 1.000000
2195.060597 272.939403 0.951057
2200.038351 274.961649 0.809017
2203.120975 252.879025 0.587785
2216.188156 208.811844 0.309017
2192.672905 147.327095 0.000000
2203.455238 73.544762 -0.309017
2221.484161 -4.484161 -0.587785
2204.927300 -78.927300 -0.809017
2207.340228 -143.340228 -0.951057
2201.963771 -190.963771 -1.000000
2186.327989 -217.327989 -0.951057
2179.115229 -220.115229 -0.809017
2182.861212 -198.861212 -0.587785
2170.381288 -155.381288 -0.309017
2181.332639 -94.332639 -0.000000
2181.120618 -21.120618 0.309017
2184.177415 56.822585 0.587785
2175.051191 131.948809 0.809017
2164.396661 196.603339 0.951057
2165.592033 244.407967 1.000000
2155.033549 270.966451 0.951057
2140.613320 273.386680 0.809017
2142.677718 251.322282 0.587785
2169.672456 207.327544 0.309017
2173.665237 146.334763 0.000000
2170.227682 73.772318 -0.309017
2175.437745 -3.437745 -0.587785
2162.525584 -77.525584 -0.809017
2172.685644 -141.685644 -0.951057
2163.076487 -189.076487 -1.000000
2153.540965 -215.540965 -0.951057
2146.498467 -218.498467 -0.809017
2145.608834 -197.608834 -0.587785
2132.771685 -154.771685 -0.309017
2147.479994 -94.479994 0.000000
2158.962603 -21.962603 0.309017
2153.380666 55.619334 0.587785
2140.741007 130.258993 0.809017
2127.533148 194.466852 0.951057
2149.071872 241.928128 1.000000
2157.150518 268.849482 0.951057
2151.714481 272.285519 0.809017
2161.428087 251.571913 0.587785
2163.891655 209.108345 0.309017
2142.117919 148.882081 -0.000000
2136.814433 76.185567 -0.309017
2136.480040 -1.480040 -0.587785
2125.394552 -76.394552 -0.809017
2126.494000 -141.494000 -0.951057
2129.114939 -190.114939 -1.000000
2129.458628 -217.458628 -0.951057
2136.902202 -220.902202 -0.809017
2128.930662 -199.930662 -0.587785
2122.973118 -156.973118 -0.309017
2129.193959 -96.193959 0.000000
2126.245501 -23.245501 0.309017
2121.490068 54.509932 0.587785
2129.587687 129.412313 0.809017
2138.554816 194.445184 0.951057
2145.725681 243.274319 1.000000
2143.913951 271.086049 0.951057
2124.057823 274.942177 0.809017
2122.988089 254.011911 0.587785
2134.210584 210.789416 0.309017
2133.188393 149.811607 0.000000
2140.244968 76.755032 -0.309017
2141.028304 -1.028304 -0.587785
2155.072623 -76.072623 -0.809017
2168.699581 -140.699581 -0.951057
2157.576291 -188.576291 -1.000000
2132.618329 -215.618329 -0.951057
2122.538109 -219.538109 -0.809017
2116.610531 -199.610531 -0.587785
2103.694762 -157.694762 -0.309017
2117.075768 -98.075768 -0.000000
2134.947856 -25.947856 0.309017
2141.242758 51.757242 0.587785
2131.834353 127.165647 0.809017
2117.489020 192.510980 0.951057
2142.738151 241.261849 1.000000
2170.381513 269.618487 0.951057
2178.104100 274.895900 0.809017
2175.886697 256.113303 0.587785
2181.129784 214.870216 0.309017
2182.612401 155.387599 0.000000
2190.599571 83.400429 -0.309017
2185.880260 6.119740 -0.587785
2181.197586 -69.197586 -0.809017
2205.183822 -135.183822 -0.951057
2189.668782 -184.668782 -1.000000
2175.766717 -213.766717 -0.951057
2214.607977 -219.607977 -0.809017
2269.319207 -200.319207 -0.587785
2284.344250 -157.344250 -0.309017
2334.815007 -95.815007 -0.000000
2382.849860 -20.849860 0.309017
2431.786062 60.213938 0.587785
2473.477395 139.522605 0.809017
2499.808387 209.191613 0.951057
2533.931722 262.068278 1.000000
2582.796310 293.203690 0.951057
2620.039616 299.960384 0.809017
2678.553776 281.446224 0.587785
2755.949153 240.050847 0.309017
2822.630051 180.369949 0.000000
2822.927650 108.072350 -0.309017
2815.342950 28.657050 -0.587785
2842.298921 -50.298921 -0.809017
2845.212567 -120.212567 -0.951057
2813.808328 -174.808328 -1.000000
2773.596372 -209.596372 -0.951057
2755.430023 -221.430023 -0.809017
2738.648982 -208.648982 -0.587785
2712.491942 -172.491942 -0.309017
2697.753140 -116.753140 -0.000000
2689.635227 -46.635227 0.309017
2658.854345 31.145655 0.587785
2616.600735 108.399265 0.809017
2548.761002 177.238998 0.951057
2483.765011 230.234989 1.000000
2428.812293 262.187707 0.951057
2375.859050 270.140950 0.809017
2328.701053 253.298947 0.587785
2300.609602 213.390398 0.309017
2264.259207 154.740793 0.000000
2249.149682 82.850318 -0.309017
2226.757344 5.242656 -0.587785
2200.685972 -70.685972 -0.809017
2214.622517 -137.622517 -0.951057
2219.046466 -188.046466 -1.000000
2216.242735 -217.242735 -0.951057
2210.528668 -222.528668 -0.809017
2218.463030 -203.463030 -0.587785
2196.577880 -161.577880 -0.309017
2213.709007 -101.709007 -0.000000
2201.768166 -28.768166 0.309017
2191.601151 49.398849 0.587785
2176.829760 125.170240 0.809017
2151.998574 191.001426 0.951057
2169.821177 240.178823 1.000000
2203.075434 268.924566 0.951057
2202.167580 274.832420 0.809017
2181.489280 256.510720 0.587785
2177.742449 215.257551 0.309017
2163.490957 155.509043 -0.000000
2149.153402 82.846598 -0.309017
2143.636669 4.363331 -0.587785
2137.055292 -72.055292 -0.809017
2126.962248 -138.962248 -0.951057
2137.904065 -189.904065 -1.000000
2135.380679 -219.380679 -0.951057
2142.829957 -224.829957 -0.809017
2127.472256 -205.472256 -0.587785
2109.763502 -163.763502 -0.309017
2102.864007 -103.864007 0.000000
2105.388588 -31.388588 0.309017
2125.204483 46.795517 0.587785
2140.529525 123.470475 0.809017
2119.957219 191.042781 0.951057
2112.980695 242.019305 1.000000
2118.275168 271.724832 0.951057
2110.450182 277.549818 0.809017
2101.397437 258.602563 0.587785
2108.302512 216.697488 0.309017
2099.675577 156.324423 -0.000000
2112.986747 83.013253 -0.309017
2108.521918 4.478082 -0.587785
2110.021632 -72.021632 -0.809017
2116.853914 -138.853914 -0.951057
2111.341605 -189.341605 -1.000000
2119.842873 -218.842873 -0.951057
2121.126334 -224.126334 -0.809017
2104.844849 -204.844849 -0.587785
2098.323377 -163.323377 -0.309017
2105.402251 -103.402251 -0.000000
2106.614939 -30.614939 0.309017
2103.224363 47.775637 0.587785
2103.017537 123.982463 0.809017
2110.378671 190.621329 0.951057
2123.641895 241.358105 1.000000
2137.617119 271.382881 0.951057
2135.209350 277.790650 0.809017
2125.438298 259.561702 0.587785
2130.706615 218.293385 0.309017
2129.610644 158.389356 0.000000
2134.439220 85.560780 -0.309017
2120.916603 7.083397 -0.587785
2124.813751 -69.813751 -0.809017
2137.184489 -137.184489 -0.951057
2127.217489 -188.217489 -1.000000
2113.460594 -218.460594 -0.951057
2128.060340 -225.060340 -0.809017
2140.678616 -206.678616 -0.587785
2116.146424 -165.146424 -0.309017
2125.442548 -105.442548 -0.000000
2123.595528 -32.595528 0.309017
2132.003342 45.996658 0.587785
2120.105030 122.894970 0.809017
2100.925300 190.074700 0.951057
2095.236766 240.763234 1.000000
2121.687363 270.312637 0.951057
2119.373075 276.626925 0.809017
2117.598745 258.401255 0.587785
2132.569652 217.430348 0.309017
2132.858817 158.141183 0.000000
2128.011328 85.988672 -0.309017
2106.092459 7.907541 -0.587785
2116.891799 -68.891799 -0.809017
2129.100559 -136.100559 -0.951057
2126.091428 -187.091428 -1.000000
2118.238572 -217.238572 -0.951057
2124.715755 -223.715755 -0.809017
2120.540302 -205.540302 -0.587785
2105.749744 -164.749744 -0.309017
2117.607431 -105.607431 -0.000000
2105.254516 -33.254516 0.309017
2109.364164 44.635836 0.587785
2106.164375 120.835625 0.809017
2104.291822 187.708178 0.951057
2119.263192 238.736808 1.000000
2129.654716 269.345284 0.951057
2127.558742 276.441258 0.809017
2131.969345 259.030655 0.587785
2150.022155 218.977845 0.309017
2139.450072 160.549928 0.000000
2128.227297 88.772703 -0.309017
2107.356979 10.643021 -0.587785
2112.446160 -66.446160 -0.809017
2124.325364 -134.325364 -0.951057
2121.174123 -186.174123 -1.000000
2117.278346 -217.278346 -0.951057
2128.615804 -224.615804 -0.809017
2142.092191 -207.092191 -0.587785
2138.355495 -166.355495 -0.309017
2137.807145 -106.807145 -0.000000
2123.201012 -34.201012 0.309017
2117.996406 44.003594 0.587785
2131.631372 120.368628 0.809017
2130.116431 187.883569 0.951057
2135.422479 239.577521 1.000000
2142.441011 270.558989 0.951057
2139.155402 277.844598 0.809017
2124.527836 260.472164 0.587785
2132.145346 219.854654 0.309017
2132.493779 160.506221 0.000000
2147.936103 88.063897 -0.309017
2132.003385 9.996615 -0.587785
2135.819336 -66.819336 -0.809017
2138.390454 -134.390454 -0.951057
2128.128860 -186.128860 -1.000000
2119.287708 -217.287708 -0.951057
2131.794000 -224.794000 -0.809017
2134.390098 -207.390098 -0.587785
2124.012071 -167.012071 -0.309017
2131.933577 -107.933577 0.000000
2137.492840 -35.492840 0.309017
2138.830230 43.169770 0.587785
2140.744534 120.255466 0.809017
2128.765378 188.234622 0.951057
2138.892030 240.107970 1.000000
2148.664227 271.335773 0.951057
2162.135234 278.864766 0.809017
2154.937615 262.062385 0.587785
2170.926867 222.073133 0.309017
2150.617700 163.382300 -0.000000
2151.152942 90.847058 -0.309017
2145.936077 12.063923 -0.587785
2157.398412 -65.398412 -0.809017
2172.546797 -133.546797 -0.951057
2165.604217 -185.604217 -1.000000
2170.008666 -217.008666 -0.951057
2169.410879 -224.410879 -0.809017
2173.205942 -207.205942 -0.587785
2142.968903 -166.968903 -0.309017
2146.484605 -108.484605 0.000000
2147.671075 -36.671075 0.309017
2161.611853 41.388147 0.587785
2162.627609 118.372391 0.809017
2168.560165 186.439835 0.951057
2181.948274 239.051726 1.000000
2200.748306 271.251694 0.951057
2206.960540 280.039460 0.809017
2200.736874 264.263126 0.587785
2181.836307 225.163693 0.309017
2182.756053 166.243947 0.000000
2190.256254 93.743746 -0.309017
2170.074448 14.925552 -0.587785
2175.178236 -63.178236 -0.809017
2186.314828 -132.314828 -0.951057
2184.559588 -185.559588 -1.000000
2174.009217 -218.009217 -0.951057
2187.709345 -226.709345 -0.809017
2182.214990 -210.214990 -0.587785
2168.603833 -170.603833 -0.309017
2172.962933 -111.962933 -0.000000
2173.599868 -39.599868 0.309017
2198.685760 39.314240 0.587785
2196.333267 117.666733 0.809017
2196.867342 187.132658 0.951057
2192.018509 240.981491 1.000000
2209.191786 273.808214 0.951057
2208.055861 282.944139 0.809017
2199.941739 267.058261 0.587785
2210.470245 227.529755 0.309017
2208.315915 168.684085 0.000000
2217.022715 95.977285 -0.309017
2214.204703 16.795297 -0.587785
2219.388462 -61.388462 -0.809017
2224.724224 -130.724224 -0.951057
2233.414779 -184.414779 -1.000000
2234.114123 -217.114123 -0.951057
2220.810563 -225.810563 -0.809017
2216.002047 -210.002047 -0.587785
2197.039926 -171.039926 -0.309017
2209.097806 -113.097806 -0.000000
2201.095169 -41.095169 0.309017
2213.566892 37.433108 0.587785
2235.697804 115.302196 0.809017
2237.853534 185.146466 0.951057
2240.343226 239.656774 1.000000
2236.491741 273.508259 0.951057
2231.768183 283.231817 0.809017
2230.150874 267.849126 0.587785
2255.062175 228.937825 0.309017
2271.031938 170.968062 0.000000
2268.578738 99.421262 -0.309017
2250.140108 20.859892 -0.587785
2252.428551 -57.428551 -0.809017
2267.285035 -127.285035 -0.951057
2261.554518 -181.554518 -1.000000
2249.421222 -215.421222 -0.951057
2230.737119 -225.737119 -0.809017
2221.671034 -211.671034 -0.587785
2217.382264 -174.382264 -0.309017
2232.412555 -117.412555 -0.000000
2236.860769 -45.860769 0.309017
2250.977055 33.022945 0.587785
2252.235956 111.764044 0.809017
2228.649361 182.350639 0.951057
2222.746375 237.253625 1.000000
2230.488055 271.511945 0.951057
2235.893951 282.106049 0.809017
2245.050008 267.949992 0.587785
2243.470164 230.529836 0.309017
2235.748670 173.251330 0.000000
2251.434178 101.565822 -0.309017
2245.933887 23.066113 -0.587785
2251.074148 -55.074148 -0.809017
2254.946766 -124.946766 -0.951057
2239.737523 -179.737523 -1.000000
2223.555427 -214.555427 -0.951057
2221.035188 -226.035188 -0.809017
2226.731343 -212.731343 -0.587785
2218.743838 -175.743838 -0.309017
2226.028390 -119.028390 -0.000000
2221.764673 -47.764673 0.309017
2234.208271 30.791729 0.587785
2220.636365 109.363635 0.809017
2211.375283 179.624717 0.951057
2209.211505 234.788495 1.000000
2201.378744 269.621256 0.951057
2207.431048 280.568952 0.809017
2206.102508 266.897492 0.587785
2208.231985 229.768015 0.309017
2195.100160 172.899840 -0.000000
2195.519307 101.480693 -0.309017
2172.175717 22.824283 -0.587785
2175.963508 -55.963508 -0.809017
2181.520659 -126.520659 -0.951057
2186.891677 -181.891677 -1.000000
2185.654315 -216.654315 -0.951057
2177.564400 -227.564400 -0.809017
2173.726806 -213.726806 -0.587785
2162.399643 -176.399643 -0.309017
2165.428689 -119.428689 0.000000
2161.045612 -48.045612 0.309017
2164.419483 30.580517 0.587785
2163.058213 108.941787 0.809017
2150.746600 179.253400 0.951057
2160.642660 234.357340 1.000000
2157.600221 269.399779 0.951057
2161.360836 280.639164 0.809017
2152.858341 267.141659 0.587785
2167.073482 229.926518 0.309017
2168.805844 173.194156 0.000000
2161.796745 102.203255 -0.309017
2152.313517 23.686483 -0.587785
2153.740821 -54.740821 -0.809017
2148.140487 -125.140487 -0.951057
2127.795248 -180.795248 -1.000000
2115.632705 -216.632705 -0.951057
2122.965165 -228.965165 -0.809017
2131.112946 -216.112946 -0.587785
2116.304759 -179.304759 -0.309017
2116.707576 -122.707576 -0.000000
2110.499366 -51.499366 0.309017
2124.815269 27.184731 0.587785
2124.851925 106.148075 0.809017
2119.678282 177.321718 0.951057
2120.391523 233.608477 1.000000
2111.360548 269.639452 0.951057
2105.355052 281.644948 0.809017
2113.485629 268.514371 0.587785
2118.120915 231.879085 0.309017
2109.752225 175.247775 0.000000
2122.155520 103.844480 -0.309017
2106.832288 25.167712 -0.587785
2100.759086 -53.759086 -0.809017
2108.997507 -124.997507 -0.951057
2117.223880 -181.223880 -1.000000
2109.924594 -216.924594 -0.951057
2103.983093 -228.983093 -0.809017
2089.193992 -216.193992 -0.587785
2081.037637 -180.037637 -0.309017
2082.905543 -123.905543 -0.000000
2068.051682 -53.051682 0.309017
2090.827483 25.172517 0.587785
2078.967509 104.032491 0.809017
2061.029150 174.970850 0.951057
2077.122818 230.877182 1.000000
2102.892163 267.107837 0.951057
2095.622109 280.377891 0.809017
2083.406077 268.593923 0.587785
2103.223114 232.776886 0.309017
2123.781320 177.218680 0.000000
2120.599493 107.400507 -0.309017
2105.411690 29.588310 -0.587785
2123.905154 -48.905154 -0.809017
2117.572950 -119.572950 -0.951057
2122.095634 -176.095634 -1.000000
2109.676749 -212.676749 -0.951057
2102.153485 -226.153485 -0.809017
2082.099451 -215.099451 -0.587785
2072.919166 -180.919166 -0.309017
2089.711131 -126.711131 -0.000000
2101.143530 -57.143530 0.309017
2113.139569 20.860431 0.587785
2083.306740 99.693260 0.809017
2075.392792 170.607208 0.951057
2088.827807 227.172193 1.000000
2094.624720 264.375280 0.951057
2094.599742 278.400258 0.809017
2103.264190 267.735810 0.587785
2120.356948 233.643052 0.309017
2116.319470 179.680530 0.000000
2094.376869 110.623131 -0.309017
2072.221895 32.778105 -0.587785
2092.266693 -46.266693 -0.809017
2088.745920 -117.745920 -0.951057
2088.227305 -175.227305 -1.000000
2093.013423 -213.013423 -0.951057
2090.273522 -227.273522 -0.809017
2085.794019 -216.794019 -0.587785
2077.647563 -182.647563 -0.309017
2077.273801 -128.273801 -0.000000
2063.810867 -58.810867 0.309017
2079.385964 18.614036 0.587785
2081.868503 97.131497 0.809017
2084.252575 168.747425 0.951057
2091.547873 226.452127 1.000000
2094.277235 264.722765 0.951057
2102.292081 279.707919 0.809017
2099.923785 270.076215 0.587785
2116.479301 236.520699 0.309017
2105.203783 182.796217 -0.000000
2106.513824 113.486176 -0.309017
2089.324031 35.675969 -0.587785
2103.478692 -43.478692 -0.809017
2113.467020 -115.467020 -0.951057
2101.329133 -173.329133 -1.000000
2109.942020 -211.942020 -0.951057
2109.022063 -227.022063 -0.809017
2111.320906 -217.320906 -0.587785
2112.708822 -183.708822 -0.309017
2130.495955 -129.495955 0.000000
2120.577361 -59.577361 0.309017
2147.468036 18.531964 0.587785
2124.905772 98.094228 0.809017
2107.882096 170.117904 0.951057
2118.336331 227.663669 1.000000
2124.235338 265.764662 0.951057
2136.409799 280.590201 0.809017
2134.146834 270.853166 0.587785
2127.839356 237.160644 0.309017
2111.293186 182.706814 -0.000000
2121.441689 112.558311 -0.309017
2122.771121 34.228879 -0.587785
2135.822109 -44.822109 -0.809017
2131.561927 -116.561927 -0.951057
2105.384991 -174.384991 -1.000000
2107.184310 -213.184310 -0.951057
2144.494557 -228.494557 -0.809017
2147.927086 -217.927086 -0.587785
2124.317604 -183.317604 -0.309017
2109.725779 -128.725779 -0.000000
2099.298886 -59.298886 0.309017
2110.746644 18.253356 0.587785
2116.126298 96.873702 0.809017
2106.271452 168.728548 0.951057
2119.590038 226.409962 1.000000
2140.161037 264.838963 0.951057
2140.548541 280.451459 0.809017
2129.760227 271.239773 0.587785
2138.173312 237.826688 0.309017
2135.050256 183.949744 0.000000
2140.395318 114.604682 -0.309017
2123.212638 36.787362 -0.587785
2118.441568 -42.441568 -0.809017
2111.037363 -115.037363 -0.951057
2093.965507 -173.965507 -1.000000
2109.708453 -213.708453 -0.951057
2124.576404 -229.576404 -0.809017
2130.018706 -220.018706 -0.587785
2124.188383 -186.188383 -0.309017
2112.672138 -131.672138 -0.000000
2099.955683 -61.955683 0.309017
2115.907447 16.092553 0.587785
2115.466190 95.533810 0.809017
2119.798482 168.201518 0.951057
2109.898747 227.101253 1.000000
2118.882999 266.117001 0.951057
2123.110387 281.889613 0.809017
2118.232771 272.767229 0.587785
2112.579642 239.420358 0.309017
2110.912132 185.087868 0.000000
2133.819074 115.180926 -0.309017
2137.845170 37.154830 -0.587785
2136.796673 -41.796673 -0.809017
2141.067200 -114.067200 -0.951057
2132.450714 -172.450714 -1.000000
2127.549181 -211.549181 -0.951057
2117.453039 -227.453039 -0.809017
2112.741371 -218.741371 -0.587785
2109.144676 -186.144676 -0.309017
2104.831639 -132.831639 -0.000000
2082.043218 -64.043218 0.309017
2104.980067 13.019933 0.587785
2114.070416 91.929584 0.809017
2119.356587 164.643413 0.951057
2128.040299 223.959701 1.000000
2119.836437 264.163563 0.951057
2113.091999 280.908001 0.809017
2096.419600 272.580400 0.587785
2111.260527 239.739473 0.309017
2125.632649 186.367351 0.000000
2125.305092 117.694908 -0.309017
2101.905625 40.094375 -0.587785
2087.415365 -39.415365 -0.809017
2092.857247 -112.857247 -0.951057
2097.561693 -172.561693 -1.000000
2098.696194 -212.696194 -0.951057
2092.415598 -229.415598 -0.809017
2100.267282 -221.267282 -0.587785
2105.703238 -188.703238 -0.309017
2107.961848 -134.961848 -0.000000
2109.376475 -65.376475 0.309017
2115.776956 13.223044 0.587785
2083.730783 93.269217 0.809017
2072.026768 165.973232 0.951057
2073.312344 224.687656 1.000000
2081.024468 263.975532 0.951057
2100.846675 280.153325 0.809017
2104.050372 271.949628 0.587785
2098.223732 239.776268 0.309017
2089.439240 186.560760 0.000000
2085.568869 117.431131 -0.309017
2070.733623 39.266377 -0.587785
2093.561050 -40.561050 -0.809017
2096.313670 -113.313670 -0.951057
2095.343888 -172.343888 -1.000000
2088.963109 -211.963109 -0.951057
2087.429587 -228.429587 -0.809017
2091.018095 -220.018095 -0.587785
2078.425835 -187.425835 -0.309017
2078.243292 -134.243292 0.000000
2081.381508 -65.381508 0.309017
2083.498360 12.501640 0.587785
2076.239287 91.760713 0.809017
2076.594527 164.405473 0.951057
2073.493579 223.506421 1.000000
2076.807627 263.192373 0.951057
2078.264826 279.735174 0.809017
2075.526869 271.473131 0.587785
2074.888104 239.111896 0.309017
2099.131658 185.868342 -0.000000
2089.424406 117.575594 -0.309017
2060.900483 40.099517 -0.587785
2070.458285 -39.458285 -0.809017
2086.393000 -112.393000 -0.951057
2077.394150 -171.394150 -1.000000
2069.290135 -211.290135 -0.951057
2081.164296 -228.164296 -0.809017
2086.875336 -219.875336 -0.587785
2073.374185 -187.374185 -0.309017
2069.315597 -134.315597 -0.000000
2066.673774 -65.673774 0.309017
2080.137402 11.862598 0.587785
2069.896878 91.103122 0.809017
2061.284946 163.715054 0.951057
2087.381183 222.618817 1.000000
2091.094334 262.905666 0.951057
2072.895601 280.104399 0.809017
2076.011771 271.988229 0.587785
2092.137771 239.862229 0.309017
2093.799827 187.200173 0.000000
2089.184875 118.815125 -0.309017
2079.753803 41.246197 -0.587785
2087.039673 -38.039673 -0.809017
2087.875048 -110.875048 -0.951057
2067.282642 -170.282642 -1.000000
2062.981898 -210.981898 -0.951057
2052.606794 -228.606794 -0.809017
2059.589203 -221.589203 -0.587785
2060.194814 -190.194814 -0.309017
2052.647605 -137.647605 -0.000000
2045.294341 -69.294341 0.309017
2066.830303 8.169697 0.587785
2075.124977 87.875023 0.809017
2072.285156 161.714844 0.951057
2065.807011 222.192989 1.000000
2065.704996 263.295004 0.951057
2091.850986 281.149014 0.809017
2090.336581 274.663419 0.587785
2103.186443 243.813557 0.309017
2091.023519 191.976481 0.000000
2078.383232 123.616768 -0.309017
2069.600874 45.399126 -0.587785
2094.938974 -34.938974 -0.809017
2094.691215 -108.691215 -0.951057
2083.246856 -169.246856 -1.000000
2077.958507 -210.958507 -0.951057
2072.603245 -229.603245 -0.809017
2083.364136 -223.364136 -0.587785
2074.455555 -192.455555 -0.309017
2049.381622 -140.381622 -0.000000
2083.654728 -72.654728 0.309017
2112.451459 5.548541 0.587785
2110.521868 86.478132 0.809017
2105.520831 161.479169 0.951057
2098.869119 223.130881 1.000000
2096.649016 265.350984 0.951057
2068.890670 284.109330 0.809017
2065.071451 276.928549 0.587785
2079.923940 245.076060 0.309017
2095.868075 192.131925 0.000000
2098.675849 123.324151 -0.309017
2086.920779 45.079221 -0.587785
2100.304342 -35.304342 -0.809017
2104.343951 -109.343951 -0.951057
2103.009317 -170.009317 -1.000000
2107.491504 -211.491504 -0.951057
2096.586159 -229.586159 -0.809017
2070.901256 -222.901256 -0.587785
2067.473992 -192.473992 -0.309017
2088.757785 -140.757785 -0.000000
2084.201397 -72.201397 0.309017
2103.135566 5.864434 0.587785
2105.620230 86.379770 0.809017
2095.924862 161.075138 0.951057
2098.662625 222.337375 1.000000
2116.531328 264.468672 0.951057
2119.273454 283.726546 0.809017
2126.130398 277.869602 0.587785
2129.422615 247.577385 0.309017
2134.265620 195.734380 0.000000
2149.541861 127.458139 -0.309017
2128.301227 49.698773 -0.587785
2132.826319 -30.826319 -0.809017
2139.616627 -105.616627 -0.951057
2146.288987 -167.288987 -1.000000
2139.801120 -209.801120 -0.951057
2135.312482 -229.312482 -0.809017
2140.871124 -223.871124 -0.587785
2126.763993 -193.763993 -0.309017
2121.423029 -142.423029 0.000000
2125.671949 -74.671949 0.309017
2146.909490 3.090510 0.587785
2137.317669 83.682331 0.809017
2122.530122 158.469878 0.951057
2120.009205 219.990795 1.000000
2105.488442 262.511558 0.951057
2126.433143 281.566857 0.809017
2113.839703 276.160297 0.587785
2114.991718 246.008282 0.309017
2121.609469 194.390531 -0.000000
2118.502200 126.497800 -0.309017
2119.259125 48.740875 -0.587785
2137.176051 -31.176051 -0.809017
2118.000227 -105.000227 -0.951057
2099.410623 -166.410623 -1.000000
2099.404771 -209.404771 -0.951057
2100.332255 -229.332255 -0.809017
2096.219109 -224.219109 -0.587785
2082.690723 -194.690723 -0.309017
2089.877955 -143.877955 0.000000
2099.253377 -76.253377 0.309017
2111.373054 1.626946 0.587785
2096.780376 82.219624 0.809017
2101.017296 156.982704 0.951057
2101.949260 219.050740 1.000000
2091.729361 262.270639 0.951057
2103.865918 282.134082 0.809017
2089.756898 277.243102 0.587785
2089.564827 247.435173 0.309017
2098.041237 195.958763 0.000000
2099.930781 128.069219 -0.309017
2093.742257 50.257743 -0.587785
2093.058577 -30.058577 -0.809017
2091.887770 -104.887770 -0.951057
2090.918048 -166.918048 -1.000000
2092.073860 -210.073860 -0.951057
2100.078864 -230.078864 -0.809017
2098.802186 -224.802186 -0.587785
2062.982591 -194.982591 -0.309017
2053.404164 -144.404164 -0.000000
2071.405673 -77.405673 0.309017
2073.867619 0.132381 0.587785
2067.746430 80.253570 0.809017
2060.096491 154.903509 0.951057
2053.270768 216.729232 1.000000
2050.309947 259.690053 0.951057
2072.331063 279.668937 0.809017
2086.668863 275.331137 0.587785
2085.063870 246.936130 0.309017
2088.117610 196.882390 0.000000
2085.815969 130.184031 -0.309017
2083.760195 53.239805 -0.587785
2095.415121 -26.415121 -0.809017
2104.643316 -100.643316 -0.951057
2089.225214 -162.225214 -1.000000
2075.737616 -205.737616 -0.951057
2075.891828 -226.891828 -0.809017
2078.292586 -223.292586 -0.587785
2074.235856 -195.235856 -0.309017
2081.626526 -145.626526 -0.000000
2069.039483 -79.039483 0.309017
2080.483129 -2.483129 0.587785
2071.865968 77.134032 0.809017
2049.469000 151.531000 0.951057
2052.929758 213.070242 1.000000
2053.653093 256.346907 0.951057
2064.939428 277.060572 0.809017
2065.551400 273.448600 0.587785
2073.388493 245.611507 0.309017
2085.544443 196.455557 0.000000
2083.089962 130.910038 -0.309017
2070.959384 55.040616 -0.587785
2079.970987 -23.970987 -0.809017
2075.876854 -97.876854 -0.951057
2078.759180 -159.759180 -1.000000
2093.391090 -203.391090 -0.951057
2088.204323 -224.204323 -0.809017
2105.639097 -220.639097 -0.587785
2089.485210 -192.485210 -0.309017
2081.316944 -143.316944 -0.000000
2100.767356 -77.767356 0.309017
2111.572425 -1.572425 0.587785
2107.382975 77.617025 0.809017
2131.312264 151.687736 0.951057
2149.913007 214.086993 1.000000
2167.397211 258.602789 0.951057
2200.127548 280.872452 0.809017
2223.881379 279.118621 0.587785
2268.671392 253.328608 0.309017
2313.418111 206.581889 0.000000
2346.491920 143.508080 -0.309017
2385.955786 70.044214 -0.587785
2431.418334 -6.418334 -0.809017
2483.196622 -78.196622 -0.951057
2530.050971 -138.050971 -1.000000
2544.182163 -180.182163 -0.951057
2575.226851 -201.226851 -0.809017
2646.684908 -198.684908 -0.587785
2702.756836 -171.756836 -0.309017
2717.375760 -123.375760 -0.000000
2704.245274 -59.245274 0.309017
2707.318764 13.681236 0.587785
2688.345752 88.654248 0.809017
2669.212520 157.787480 0.951057
2631.713532 214.286468 1.000000
2604.861857 252.138143 0.951057
2595.142381 267.857619 0.809017
2581.698387 260.301613 0.587785
2562.895246 230.104754 0.309017
2541.927507 180.072493 -0.000000
2518.974786 115.025214 -0.309017
2483.745082 41.254918 -0.587785
2454.352256 -34.352256 -0.809017
2431.292533 -104.292533 -0.951057
2388.597310 -161.597310 -1.000000
2323.176298 -201.176298 -0.951057
2263.775618 -219.775618 -0.809017
2222.504177 -215.504177 -0.587785
2196.399545 -188.399545 -0.309017
2157.786241 -140.786241 0.000000
2114.669646 -77.669646 0.309017
2108.387880 -5.387880 0.587785
2117.148273 69.851727 0.809017
2116.947433 141.052567 0.951057
2110.968307 201.031693 1.000000
2122.226772 243.773228 0.951057
2130.483044 265.516956 0.809017
2139.926830 264.073170 0.587785
2152.377011 239.622989 0.309017
2161.353519 194.646481 0.000000
2142.525347 133.474653 -0.309017
2122.588704 61.411296 -0.587785
2113.540276 -14.540276 -0.809017
2108.697583 -86.697583 -0.951057
2100.903294 -147.903294 -1.000000
2086.245881 -192.245881 -0.951057
2068.565900 -215.565900 -0.809017
2065.674122 -215.674122 -0.587785
2082.211883 -192.211883 -0.309017
2072.993629 -146.993629 -0.000000
2077.069303 -85.069303 0.309017
2094.179421 -12.179421 0.587785
2103.128104 64.871896 0.809017
2093.640773 138.359227 0.951057
2082.360829 200.639171 1.000000
2075.441092 245.558908 0.951057
2073.183416 268.816584 0.809017
2065.756339 268.243661 0.587785
2067.235777 243.764223 0.309017
2089.011936 197.988064 0.000000
2107.094700 135.905300 -0.309017
2092.472664 63.527336 -0.587785
2092.856464 -12.856464 -0.809017
2076.411866 -85.411866 -0.951057
2079.456882 -147.456882 -1.000000
2073.450995 -192.450995 -0.951057
2059.212414 -216.212414 -0.809017
2036.628372 -216.628372 -0.587785
2002.884211 -193.884211 -0.309017
1999.512925 -150.512925 -0.000000
2031.041964 -90.041964 0.309017
2056.522264 -17.522264 0.587785
2070.165198 59.834802 0.809017
2072.807772 134.192228 0.951057
2056.986925 198.013075 1.000000
2044.408237 244.591763 0.951057
2039.569460 269.430540 0.809017
2050.723879 270.276121 0.587785
2059.560357 247.439643 0.309017
2076.887800 203.112200 0.000000
2057.144042 141.855958 -0.309017
2051.238475 68.761525 -0.587785
2045.694310 -8.694310 -0.809017
2043.927820 -82.927820 -0.951057
2045.584854 -146.584854 -1.000000
2038.350792 -193.350792 -0.951057
2040.868107 -218.868107 -0.809017
2058.404055 -220.404055 -0.587785
2061.429740 -197.429740 -0.309017
2053.535347 -152.535347 -0.000000
2066.384753 -90.384753 0.309017
2077.552755 -16.552755 0.587785
2060.292856 61.707144 0.809017
2052.962713 136.037287 0.951057
2050.611154 199.388846 1.000000
2032.323974 245.676026 0.951057
2049.033354 269.966646 0.809017
2044.264490 270.735510 0.587785
2064.609155 247.390845 0.309017
2086.160207 202.839793 0.000000
2077.501626 141.498374 -0.309017
2062.357758 68.642242 -0.587785
2069.769663 -8.769663 -0.809017
2069.614360 -82.614360 -0.951057
2067.843528 -145.843528 -1.000000
2063.308432 -192.308432 -0.951057
2048.532038 -217.532038 -0.809017
2049.306864 -219.306864 -0.587785
2046.088479 -197.088479 -0.309017
2047.150654 -153.150654 -0.000000
2056.691254 -91.691254 0.309017
2080.513094 -18.513094 0.587785
2077.410656 59.589344 0.809017
2074.673110 134.326890 0.951057
2071.610962 198.389038 1.000000
2056.506525 245.493475 0.951057
2058.275515 270.724485 0.809017
2055.984364 272.015636 0.587785
2064.858798 249.141202 0.309017
2089.383373 204.616627 0.000000
2095.797599 143.202401 -0.309017
2083.512576 70.487424 -0.587785
2077.870087 -6.870087 -0.809017
2060.146810 -81.146810 -0.951057
2055.380945 -145.380945 -1.000000
2054.982557 -192.982557 -0.951057
2059.188714 -219.188714 -0.809017
2061.319549 -221.319549 -0.587785
2051.213216 -199.213216 -0.309017
2049.336961 -155.336961 0.000000
2062.792309 -93.792309 0.309017
2063.222687 -20.222687 0.587785
2066.138762 57.861238 0.809017
2063.121263 132.878737 0.951057
2059.658198 197.341802 1.000000
2073.074492 244.925508 0.951057
2078.610222 271.389778 0.809017
2068.036494 273.963506 0.587785
2066.001205 251.998795 0.309017
2082.153774 207.846226 -0.000000
2072.720033 146.279967 -0.309017
2065.293341 72.706659 -0.587785
2064.633197 -5.633197 -0.809017
2057.911075 -80.911075 -0.951057
2074.910606 -145.910606 -1.000000
2064.684370 -193.684370 -0.951057
2060.215780 -220.215780 -0.809017
2070.776329 -222.776329 -0.587785
2074.745111 -200.745111 -0.309017
2063.430568 -156.430568 -0.000000
2078.547744 -94.547744 0.309017
2098.507211 -20.507211 0.587785
2113.417019 58.582981 0.809017
2118.120886 134.879114 0.951057
2105.324113 200.675887 1.000000
2109.899109 249.100891 0.951057
2118.167413 275.832587 0.809017
2100.647779 278.352221 0.587785
2093.221429 255.778571 0.309017
2098.447801 210.552199 0.000000
2105.592591 147.407409 -0.309017
2110.420392 72.579608 -0.587785
2105.655719 -6.655719 -0.809017
2097.776372 -82.776372 -0.951057
2103.414828 -148.414828 -1.000000
2101.817633 -196.817633 -0.951057
2099.420775 -223.420775 -0.809017
2103.642099 -225.642099 -0.587785
2101.101646 -203.101646 -0.309017
2100.169710 -158.169710 -0.000000
2103.207439 -95.207439 0.309017
2103.279916 -20.279916 0.587785
2109.791984 59.208016 0.809017
2111.363398 135.636602 0.951057
2094.591068 201.408932 1.000000
2099.369919 249.630081 0.951057
2098.901915 276.098085 0.809017
2103.903254 278.096746 0.587785
2111.433417 255.566583 0.309017
2127.217655 210.782345 0.000000
2122.656609 148.343391 -0.309017
2136.127638 73.872362 -0.587785
2153.895777 -4.895777 -0.809017
2139.126742 -80.126742 -0.951057
2138.248090 -145.248090 -1.000000
2132.556101 -193.556101 -0.951057
2136.443460 -220.443460 -0.809017
2145.045724 -223.045724 -0.587785
2147.985538 -200.985538 -0.309017
2127.553342 -156.553342 -0.000000
2131.679171 -94.679171 0.309017
2143.830751 -20.830751 0.587785
2147.031187 57.968813 0.809017
2153.202840 133.797160 0.951057
2137.690120 199.309880 1.000000
2129.440427 247.559573 0.951057
2156.014182 273.985818 0.809017
2167.137678 276.862322 0.587785
2162.446228 255.553772 0.309017
2188.235767 211.764233 0.000000
2188.463585 150.536415 -0.309017
2170.743764 77.256236 -0.587785
2161.351540 -1.351540 -0.809017
2152.405731 -77.405731 -0.951057
2167.461952 -143.461952 -1.000000
2156.465056 -192.465056 -0.951057
2152.251184 -220.251184 -0.809017
2154.944315 -223.944315 -0.587785
2157.015422 -203.015422 -0.309017
2157.525424 -159.525424 -0.000000
2167.767921 -97.767921 0.309017
2179.544229 -23.544229 0.587785
2191.069004 55.930996 0.809017
2178.113712 132.886288 0.951057
2169.809175 199.190825 1.000000
2165.545326 248.454674 0.951057
2168.053596 275.946404 0.809017
2168.860983 279.139017 0.587785
2179.319455 257.680545 0.309017
2198.086242 213.913758 0.000000
2183.656641 152.343359 -0.309017
2187.810660 78.189340 -0.587785
2185.842651 -0.842651 -0.809017
2179.164382 -77.164382 -0.951057
2185.425112 -143.425112 -1.000000
2195.823478 -192.823478 -0.951057
2202.412921 -220.412921 -0.809017
2193.575294 -223.575294 -0.587785
2186.378657 -202.378657 -0.309017
2178.867672 -158.867672 -0.000000
2195.318162 -97.318162 0.309017
2200.165176 -23.165176 0.587785
2202.937283 56.062717 0.809017
2183.435803 132.564197 0.951057
2157.702681 198.297319 1.000000
2161.351987 246.648013 0.951057
2169.413549 273.586451 0.809017
2178.409517 276.590483 0.587785
2182.600724 255.399276 0.309017
2201.021937 211.978063 -0.000000
2207.061908 150.938092 -0.309017
2189.032609 77.967391 -0.587785
2191.385502 -0.385502 -0.809017
2193.963365 -75.963365 -0.951057
2201.359607 -141.359607 -1.000000
2181.049174 -190.049174 -0.951057
2169.949610 -217.949610 -0.809017
2172.124405 -222.124405 -0.587785
2167.846623 -201.846623 -0.309017
2147.259848 -159.259848 -0.000000
2153.945731 -98.945731 0.309017
2167.151609 -26.151609 0.587785
2191.831898 52.168102 0.809017
2182.350059 128.649941 0.951057
2178.016521 194.983479 1.000000
2185.207368 244.792632 0.951057
2181.515459 273.484541 0.809017
2167.012628 277.987372 0.587785
2170.414435 257.585565 0.309017
2179.293938 214.706062 0.000000
2148.312687 153.687313 -0.309017
2152.483397 79.516603 -0.587785
2151.704831 0.295169 -0.809017
2143.340871 -76.340871 -0.951057
2138.080435 -143.080435 -1.000000
2133.323236 -193.323236 -0.951057
2136.145014 -222.145014 -0.809017
2125.540840 -226.540840 -0.587785
2121.412614 -206.412614 -0.309017
2113.581705 -163.581705 -0.000000
2146.338318 -102.338318 0.309017
2140.672277 -27.672277 0.587785
2126.812900 52.187100 0.809017
2130.789146 129.210854 0.951057
2127.711703 196.288297 1.000000
2135.318056 246.681944 0.951057
2125.277757 275.722243 0.809017
2115.865333 280.134667 0.587785
2122.509289 259.490711 0.309017
2129.798960 216.201040 0.000000
2123.472578 154.527422 -0.309017
2122.824582 80.175418 -0.587785
2110.442661 0.557339 -0.809017
2102.827383 -76.827383 -0.951057
2110.299777 -144.299777 -1.000000
2090.887302 -194.887302 -0.951057
2092.301075 -224.301075 -0.809017
2091.164970 -229.164970 -0.587785
2086.064891 -209.064891 -0.309017
2075.068863 -166.068863 -0.000000
2084.539276 -104.539276 0.309017
2074.000869 -30.000869 0.587785
2076.238612 49.761388 0.809017
2078.753683 127.246317 0.951057
2070.121174 194.878826 1.000000
2060.237039 245.762961 0.951057
2072.124025 274.875975 0.809017
2087.099732 279.900268 0.587785
2076.564211 260.435789 0.309017
2075.231599 217.768401 0.000000
2052.708134 156.291866 -0.309017
2064.507465 81.492535 -0.587785
2068.477203 1.522797 -0.809017
2084.970655 -75.970655 -0.951057
2097.084272 -143.084272 -1.000000
2096.337819 -193.337819 -0.951057
2089.118810 -222.118810 -0.809017
2089.772687 -226.772687 -0.587785
2070.655908 -206.655908 -0.309017
2042.231110 -164.231110 -0.000000
2040.907218 -103.907218 0.309017
2041.946413 -30.946413 0.587785
2053.433151 47.566849 0.809017
2068.790395 124.209605 0.951057
2056.409655 191.590345 1.000000
2059.561287 242.438713 0.951057
2051.849521 272.150479 0.809017
2043.450483 277.549517 0.587785
2043.919284 258.080716 0.309017
2050.138764 215.861236 0.000000
2037.831846 155.168154 -0.309017
2052.513017 81.486983 -0.587785
2050.310208 2.689792 -0.809017
2047.914337 -73.914337 -0.951057
2066.834378 -140.834378 -1.000000
2055.989767 -190.989767 -0.951057
2031.191911 -220.191911 -0.809017
2028.944399 -225.944399 -0.587785
2040.150724 -207.150724 -0.309017
2027.316943 -165.316943 -0.000000
2047.125331 -105.125331 0.309017
2051.667511 -31.667511 0.587785
2041.491463 47.508537 0.809017
2027.709890 124.290110 0.951057
2016.941295 191.058705 1.000000
2026.662992 241.337008 0.951057
2048.297492 270.702508 0.809017
2047.409578 276.590422 0.587785
2058.112189 257.887811 0.309017
2076.285906 216.714094 -0.000000
2067.700487 157.299513 -0.309017
2051.186759 84.813241 -0.587785
2051.857973 6.142027 -0.809017
2029.603826 -70.603826 -0.951057
2046.484211 -138.484211 -1.000000
2040.903390 -189.903390 -0.951057
2032.368971 -220.368971 -0.809017
2034.979439 -226.979439 -0.587785
2041.819536 -208.819536 -0.309017
2034.557945 -167.557945 0.000000
2036.577810 -107.577810 0.309017
2018.527255 -34.527255 0.587785
2022.056264 43.943736 0.809017
2045.328724 120.671276 0.951057
2058.357355 188.642645 1.000000
2061.023290 240.976710 0.951057
2070.692475 272.307525 0.809017
2045.253448 279.746552 0.587785
2026.300265 261.699735 0.309017
2036.935359 220.064641 0.000000
2028.366682 159.633318 -0.309017
2028.145875 85.854125 -0.587785
2034.852705 6.147295 -0.809017
2040.511991 -71.511991 -0.951057
2040.539883 -139.539883 -1.000000
2041.411198 -191.411198 -0.951057
2030.027291 -222.027291 -0.809017
2032.696558 -228.696558 -0.587785
2025.428766 -210.428766 -0.309017
2026.257253 -169.257253 -0.000000
2026.018661 -109.018661 0.309017
2005.635225 -35.635225 0.587785
1996.794141 43.205859 0.809017
1989.949305 120.050695 0.951057
1983.583737 187.416263 1.000000
2009.288041 238.711959 0.951057
2031.289440 269.710560 0.809017
2018.683414 277.316586 0.587785
2044.052759 259.947241 0.309017
2050.763282 220.236718 0.000000
2043.363270 161.636730 -0.309017
2053.461100 89.538900 -0.587785
2053.570943 11.429057 -0.809017
2044.284207 -65.284207 -0.951057
2046.326443 -133.326443 -1.000000
2039.765343 -185.765343 -0.951057
2023.680405 -217.680405 -0.809017
2007.193686 -226.193686 -0.587785
2008.501571 -210.501571 -0.309017
2000.715423 -171.715423 -0.000000
2013.857649 -113.857649 0.309017
2005.078091 -42.078091 0.587785
2004.934994 36.065006 0.809017
2017.872381 113.127619 0.951057
1997.106841 181.893159 1.000000
2006.196366 234.803634 0.951057
2014.599234 267.400766 0.809017
2020.512325 276.487675 0.587785
2018.877091 261.122909 0.309017
2029.370995 222.629005 0.000000
2008.924757 165.075243 -0.309017
2013.665278 93.334722 -0.587785
2010.965445 15.034555 -0.809017
2018.340899 -62.340899 -0.951057
2031.969014 -130.969014 -1.000000
2022.966651 -183.966651 -0.951057
2019.695118 -216.695118 -0.809017
2010.818470 -225.818470 -0.587785
1995.587780 -210.587780 -0.309017
1972.663646 -172.663646 -0.000000
1982.969320 -115.969320 0.309017
1988.251741 -45.251741 0.587785
1999.546210 32.453790 0.809017
2004.302321 109.697679 0.951057
1999.230884 178.769116 1.000000
2004.332961 232.667039 0.951057
2002.636323 266.363677 0.809017
1989.603158 276.396842 0.587785
1995.501071 261.498929 0.309017
2003.414421 223.585579 0.000000
1988.574382 166.425618 -0.309017
1971.944890 95.055110 -0.587785
1950.602599 16.397401 -0.809017
1971.986110 -61.986110 -0.951057
1988.380669 -131.380669 -1.000000
1980.092012 -185.092012 -0.951057
1983.459519 -218.459519 -0.809017
1983.935683 -227.935683 -0.587785
1981.661075 -212.661075 -0.309017
1973.199066 -174.199066 -0.000000
1989.472054 -116.472054 0.309017
1968.522741 -44.522741 0.587785
1980.304672 33.695328 0.809017
1960.681729 111.318271 0.951057
1948.022892 179.977108 1.000000
1952.898875 233.101125 0.951057
1968.086945 265.913055 0.809017
1985.535193 275.464807 0.587785
1983.103525 260.896475 0.309017
1991.841537 223.158463 0.000000
1960.778905 166.221095 -0.309017
1943.326525 94.673475 -0.587785
1940.178571 15.821429 -0.809017
1948.280198 -62.280198 -0.951057
1957.708887 -131.708887 -1.000000
1959.625385 -185.625385 -0.951057
1956.928237 -218.928237 -0.809017
1960.470525 -228.470525 -0.587785
1950.165496 -213.165496 -0.309017
1948.853162 -174.853162 -0.000000
1951.071594 -117.071594 0.309017
1938.390190 -45.390190 0.587785
1943.195407 32.804593 0.809017
1940.719847 110.280153 0.951057
1923.723496 179.276504 1.000000
1933.326248 232.673752 0.951057
1950.110816 265.889184 0.809017
1938.137262 275.862738 0.587785
1924.080284 260.919716 0.309017
1927.543890 222.456110 0.000000
1922.342180 164.657820 -0.309017
1928.029850 92.970150 -0.587785
1920.323741 14.676259 -0.809017
1920.887787 -62.887787 -0.951057
1935.932153 -131.932153 -1.000000
1918.335599 -185.335599 -0.951057
1909.668237 -218.668237 -0.809017
1921.465538 -228.465538 -0.587785
1911.267462 -213.267462 -0.309017
1894.097153 -175.097153 -0.000000
1907.877769 -117.877769 0.309017
1907.457581 -46.457581 0.587785
1922.165850 31.834150 0.809017
1911.288621 109.711379 0.951057
1896.070700 178.929300 1.000000
1890.409445 232.590555 0.951057
1896.337297 265.662703 0.809017
1899.808790 275.191210 0.587785
1915.810794 260.189206 0.309017
1932.557299 222.442701 0.000000
1917.315221 165.684779 -0.309017
1914.307924 94.692076 -0.587785
1900.298927 16.701073 -0.809017
1901.932650 -60.932650 -0.951057
1907.235836 -130.235836 -1.000000
1894.330872 -184.330872 -0.951057
1877.371272 -218.371272 -0.809017
1871.142082 -229.142082 -0.587785
1874.341471 -215.341471 -0.309017
1845.092246 -178.092246 -0.000000
1846.847922 -121.847922 0.309017
1845.374752 -51.374752 0.587785
1852.649713 26.350287 0.809017
1856.064173 103.935827 0.951057
1861.300356 173.699644 1.000000
1861.137509 228.862491 0.951057
1869.103926 263.896074 0.809017
1855.425905 275.574095 0.587785
1872.777936 262.222064 0.309017
1866.094013 225.905987 0.000000
1848.398933 169.601067 -0.309017
1855.464636 98.535364 -0.587785
1855.737348 20.262652 -0.809017
1849.716368 -57.716368 -0.951057
1845.925576 -127.925576 -1.000000
1834.444019 -183.444019 -0.951057
1834.034071 -219.034071 -0.809017
1836.949189 -230.949189 -0.587785
1817.940412 -217.940412 -0.309017
1801.825662 -181.825662 0.000000
1826.091009 -126.091009 0.309017
1823.202366 -55.202366 0.587785
1828.747965 23.252035 0.809017
1808.200148 101.799852 0.951057
1790.893274 172.106726 1.000000
1790.653586 227.346414 0.951057
1821.482827 262.517173 0.809017
1824.047327 274.952673 0.587785
1830.233255 262.766745 0.309017
1823.754094 227.245906 0.000000
1812.441874 171.558126 -0.309017
1806.974243 101.025757 -0.587785
1793.314727 22.685273 -0.809017
1803.006301 -56.006301 -0.951057
1804.779022 -126.779022 -1.000000
1793.891276 -182.891276 -0.951057
1792.164747 -219.164747 -0.809017
1796.833026 -231.833026 -0.587785
1818.498297 -219.498297 -0.309017
1812.937332 -182.937332 0.000000
1811.383119 -126.383119 0.309017
1778.278215 -55.278215 0.587785
1776.373531 22.626469 0.809017
1774.555423 100.444577 0.951057
1755.441434 170.558566 1.000000
1769.329433 225.670567 0.951057
1797.812504 261.187496 0.809017
1799.985422 274.014578 0.587785
1788.726692 262.273308 0.309017
1795.220131 226.779869 0.000000
1777.561364 171.438636 -0.309017
1779.929066 101.070934 -0.587785
1772.956102 23.043898 -0.809017
1786.235261 -55.235261 -0.951057
1784.606263 -125.606263 -1.000000
1773.537159 -181.537159 -0.951057
1760.791039 -217.791039 -0.809017
1754.874591 -230.874591 -0.587785
1763.351960 -219.351960 -0.309017
1759.998454 -183.998454 0.000000
1766.560120 -128.560120 0.309017
1760.219873 -58.219873 0.587785
1756.177625 19.822375 0.809017
1744.023004 97.976996 0.951057
1740.614082 168.385918 1.000000
1748.639207 224.360793 0.951057
1756.295908 260.704092 0.809017
1765.141112 273.858888 0.587785
1754.423421 262.576579 0.309017
1752.516693 227.483307 0.000000
1742.778595 172.221405 -0.309017
1747.997824 102.002176 -0.587785
1740.938814 24.061186 -0.809017
1743.272728 -54.272728 -0.951057
1747.105512 -125.105512 -1.000000
1742.463230 -181.463230 -0.951057
1738.036385 -218.036385 -0.809017
1747.245235 -231.245235 -0.587785
1751.461330 -219.461330 -0.309017
1740.951711 -183.951711 -0.000000
1747.555293 -128.555293 0.309017
1740.279691 -58.279691 0.587785
1733.342871 19.657129 0.809017
1727.374264 97.625736 0.951057
1719.990264 168.009736 1.000000
1733.123235 223.876765 0.951057
1735.737941 260.262059 0.809017
1721.642915 273.357085 0.587785
1709.534535 261.465465 0.309017
1712.216346 225.783654 0.000000
1687.840625 170.159375 -0.309017
1685.635635 99.364365 -0.587785
1674.147027 20.852973 -0.809017
1673.924346 -57.924346 -0.951057
1678.988729 -128.988729 -1.000000
1681.251995 -185.251995 -0.951057
1688.270534 -221.270534 -0.809017
1693.396950 -233.396950 -0.587785
1684.482940 -220.482940 -0.309017
1675.137355 -184.137355 -0.000000
1671.939650 -127.939650 0.309017
1666.248588 -57.248588 0.587785
1678.050148 20.949852 0.809017
1675.568586 99.431414 0.951057
1672.828862 170.171138 1.000000
1678.764963 226.235037 0.951057
1682.651273 262.348727 0.809017
1683.066830 274.933170 0.587785
1670.325503 262.674497 0.309017
1681.555739 226.444261 0.000000
1682.627373 170.372627 -0.309017
1694.291946 99.708054 -0.587785
1674.366183 21.633817 -0.809017
1676.983119 -56.983119 -0.951057
1682.907993 -127.907993 -1.000000
1676.112286 -184.112286 -0.951057
1673.405093 -220.405093 -0.809017
1674.139925 -233.139925 -0.587785
1661.987468 -220.987468 -0.309017
1655.458574 -185.458574 -0.000000
1666.905339 -129.905339 0.309017
1666.324297 -59.324297 0.587785
1665.911101 19.088899 0.809017
1664.337897 97.662103 0.951057
1669.325483 168.674517 1.000000
1673.662954 225.337046 0.951057
1685.906983 262.093017 0.809017
1697.452529 275.547471 0.587785
1705.619089 264.380911 0.309017
1708.383950 229.616050 -0.000000
1692.469134 174.530866 -0.309017
1698.946130 104.053870 -0.587785
1690.375835 25.624165 -0.809017
1711.449260 -53.449260 -0.951057
1723.695542 -124.695542 -1.000000
1713.335491 -181.335491 -0.951057
1710.374969 -218.374969 -0.809017
1710.015981 -232.015981 -0.587785
1709.861834 -220.861834 -0.309017
1708.999692 -185.999692 -0.000000
1717.859993 -130.859993 0.309017
1712.598189 -60.598189 0.587785
1713.434205 17.565795 0.809017
1712.873271 96.126729 0.951057
1727.639378 167.360622 1.000000
1745.322906 224.677094 0.951057
1753.443388 262.556612 0.809017
1750.926175 277.073825 0.587785
1754.448317 266.551683 0.309017
1767.831931 232.168069 -0.000000
1767.460462 177.539538 -0.309017
1778.313991 107.686009 -0.587785
1770.274597 29.725403 -0.809017
1786.169995 -49.169995 -0.951057
1801.688821 -120.688821 -1.000000
1818.820280 -177.820280 -0.951057
1827.912640 -214.912640 -0.809017
1833.515060 -228.515060 -0.587785
1844.372163 -217.372163 -0.309017
1822.436472 -182.436472 -0.000000
1829.934269 -127.934269 0.309017
1847.491614 -58.491614 0.587785
1889.645375 19.354625 0.809017
1886.379291 98.620709 0.951057
1886.536395 170.463605 1.000000
1921.067587 227.932413 0.951057
1960.738771 266.261229 0.809017
1995.131086 281.868914 0.587785
2027.855752 273.144248 0.309017
2083.058346 240.941654 -0.000000
2125.984665 189.015335 -0.309017
2185.791161 122.208839 -0.587785
2219.463820 47.536180 -0.809017
2261.273329 -28.273329 -0.951057
2301.554302 -97.554302 -1.000000
2350.512092 -153.512092 -0.951057
2393.402951 -190.402951 -0.809017
2457.707516 -204.707516 -0.587785
2519.437731 -194.437731 -0.309017
2531.584552 -160.584552 -0.000000
2549.625816 -107.625816 0.309017
2544.583270 -40.583270 0.587785
2553.574524 33.425476 0.809017
2508.499397 107.500603 0.951057
2482.949535 173.050465 1.000000
2478.908437 224.091563 0.951057
2475.865906 256.134094 0.809017
2440.938467 266.061533 0.587785
2429.898733 252.101267 0.309017
2417.825720 216.174280 0.000000
2370.241984 161.758016 -0.309017
2348.723423 93.276577 -0.587785
2289.973190 18.026810 -0.809017
2244.582435 -57.582435 -0.951057
2183.887897 -125.887897 -1.000000
2123.641496 -180.641496 -0.951057
2073.546630 -216.546630 -0.809017
2050.908582 -229.908582 -0.587785
2010.794267 -218.794267 -0.309017
1962.756237 -184.756237 -0.000000
1973.373548 -131.373548 0.309017
1959.464065 -62.464065 0.587785
1969.373307 14.626693 0.809017
1956.069005 92.930995 0.951057
1957.784345 164.215655 1.000000
1987.137952 221.862048 0.951057
2007.079603 260.920397 0.809017
2002.631983 277.368017 0.587785
1989.990431 269.009569 0.309017
1992.547053 236.452947 0.000000
1997.750496 183.249504 -0.309017
1996.323535 114.676465 -0.587785
1972.713159 37.286841 -0.809017
1992.900262 -41.900262 -0.951057
2006.067411 -114.067411 -1.000000
2002.301182 -172.301182 -0.951057
1976.308470 -211.308470 -0.809017
1951.831241 -227.831241 -0.587785
1946.246047 -220.246047 -0.309017
1930.853031 -188.853031 -0.000000
1944.977187 -136.977187 0.309017
1944.977392 -68.977392 0.587785
1960.845755 8.154245 0.809017
1964.735753 87.264247 0.951057
1963.671269 160.328731 1.000000
1957.923465 220.076535 0.951057
1967.459258 260.540742 0.809017
1969.864509 278.135491 0.587785
1963.028111 270.971889 0.309017
1973.476938 239.523062 0.000000
1969.708795 187.291205 -0.309017
1957.953503 119.046497 -0.587785
1945.735084 41.264916 -0.809017
1961.465696 -38.465696 -0.951057
1959.656975 -111.656975 -1.000000
1960.563687 -171.563687 -0.951057
1967.256070 -212.256070 -0.809017
1969.605120 -229.605120 -0.587785
1978.012986 -222.012986 -0.309017
1964.068494 -190.068494 0.000000
1960.447115 -137.447115 0.309017
1943.058780 -69.058780 0.587785
1960.946421 8.053579 0.809017
1978.797710 87.202290 0.951057
1968.339295 160.660705 1.000000
1964.447699 220.552301 0.951057
1987.834154 261.165846 0.809017
1994.797008 279.202992 0.587785
1989.483836 272.516164 0.309017
1989.538466 241.461534 0.000000
1979.793361 189.206639 -0.309017
1975.378375 120.621625 -0.587785
1955.458598 42.541402 -0.809017
1962.784017 -37.784017 -0.951057
1979.835064 -111.835064 -1.000000
1976.111003 -172.111003 -0.951057
1983.210118 -213.210118 -0.809017
1988.843319 -230.843319 -0.587785
1993.312508 -223.312508 -0.309017
1982.377060 -191.377060 0.000000
1971.542686 -138.542686 0.309017
1961.992038 -69.992038 0.587785
1956.416493 7.583507 0.809017
1953.321995 86.678005 0.951057
1958.395661 159.604339 1.000000
1969.575610 219.424390 0.951057
1992.558581 260.441419 0.809017
2000.050851 278.949149 0.587785
1998.223232 272.776768 0.309017
2000.695357 242.304643 0.000000
1995.379146 190.620854 -0.309017
1989.407112 122.592888 -0.587785
1972.143105 44.856895 -0.809017
1977.267391 -35.267391 -0.951057
1985.398263 -109.398263 -1.000000
1991.197840 -170.197840 -0.951057
1988.762969 -211.762969 -0.809017
1973.223732 -230.223732 -0.587785
1981.103647 -224.103647 -0.309017
1982.435328 -193.435328 0.000000
1990.374865 -141.374865 0.309017
1981.851476 -72.851476 0.587785
1994.974564 5.025436 0.809017
1994.836531 85.163469 0.951057
1987.597318 159.402682 1.000000
2001.701674 220.298326 0.951057
2002.585758 262.414242 0.809017
2012.685418 281.314582 0.587785
2016.619280 275.380720 0.309017
2011.948282 245.051718 0.000000
2020.913920 193.086080 -0.309017
2016.094234 124.905766 -0.587785
2006.148922 46.851078 -0.809017
2025.571486 -33.571486 -0.951057
2025.767577 -107.767577 -1.000000
2020.931262 -168.931262 -0.951057
2019.200982 -211.200982 -0.809017
2032.367350 -230.367350 -0.587785
2021.183930 -224.183930 -0.309017
2004.848631 -193.848631 -0.000000
2007.473366 -142.473366 0.309017
1991.633090 -74.633090 0.587785
2003.426895 2.573105 0.809017
2020.740792 82.259208 0.951057
2043.222579 156.777421 1.000000
2033.016235 218.983765 0.951057
2040.000645 261.999355 0.809017
2037.969195 282.030805 0.587785
2037.099554 276.900446 0.309017
2039.862965 247.137035 0.000000
2023.256217 195.743783 -0.309017
2007.729453 127.270547 -0.587785
2006.573356 48.426644 -0.809017
2024.729867 -32.729867 -0.951057
2023.773420 -107.773420 -1.000000
2030.813838 -169.813838 -0.951057
2041.579421 -212.579421 -0.809017
2048.782232 -231.782232 -0.587785
2054.618462 -225.618462 -0.309017
2037.716816 -194.716816 -0.000000
2026.663468 -142.663468 0.309017
2029.428236 -74.428236 0.587785
2048.358531 3.641469 0.809017
2035.688838 84.311162 0.951057
2034.082507 158.917493 1.000000
2033.581443 220.418557 0.951057
2043.180132 262.819868 0.809017
2050.777230 282.222770 0.587785
2057.310323 276.689677 0.309017
2077.255098 246.744902 -0.000000
2085.337065 195.662935 -0.309017
2078.828131 128.171869 -0.587785
2060.476685 50.523315 -0.809017
2065.985972 -29.985972 -0.951057
2077.901118 -104.901118 -1.000000
2075.722020 -166.722020 -0.951057
2070.734993 -209.734993 -0.809017
2054.802492 -229.802492 -0.587785
2074.239911 -225.239911 -0.309017
2077.629112 -195.629112 -0.000000
2087.246030 -144.246030 0.309017
2088.960558 -75.960558 0.587785
2092.642747 2.357253 0.809017
2075.907600 83.092400 0.951057
2083.163965 157.836035 1.000000
2089.148957 219.851043 0.951057
2097.955944 263.044056 0.809017
2114.735086 283.264914 0.587785
2100.255660 278.744340 0.309017
2092.836096 249.163904 -0.000000
2098.422074 197.577926 -0.309017
2127.647940 129.352060 -0.587785
2128.237437 51.762563 -0.809017
2111.275715 -28.275715 -0.951057
2110.366128 -103.366128 -1.000000
2114.777754 -165.777754 -0.951057
2150.269391 -209.269391 -0.809017
2142.801377 -228.801377 -0.587785
2125.492348 -223.492348 -0.309017
2122.117152 -194.117152 -0.000000
2127.224072 -143.224072 0.309017
2123.586954 -75.586954 0.587785
2138.038942 1.961058 0.809017
2131.723199 82.276801 0.951057
2130.003099 156.996901 1.000000
2136.085603 218.914397 0.951057
2152.838667 262.161333 0.809017
2162.221395 282.778605 0.587785
2172.415709 278.584291 0.309017
2161.979271 250.020729 -0.000000
2165.619375 199.380625 -0.309017
2175.039871 131.960129 -0.587785
2163.492208 54.507792 -0.809017
2173.907488 -25.907488 -0.951057
2176.879159 -100.879159 -1.000000
